0.0439453
0.0442505
0.0447083
0.0456238
0.0468445
0.0480652
0.0497437
0.0509644
0.0521851
0.0538635
0.0558472
0.0579834
0.0590515
0.0605774
0.0616455
0.062561
0.0634766
0.0636292
0.0643921
0.0646973
0.0653076
0.0656128
0.0665283
0.0674438
0.0689697
0.070343
0.0717163
0.0727844
0.0737
0.0746155
0.0744629
0.0743103
0.0733948
0.0714111
0.0686646
0.0653076
0.0602722
0.0552368
0.0492859
0.0434875
0.0379944
0.0318909
0.0259399
0.020752
0.0158691
0.0117493
0.00732422
0.00335693
-0.000152588
-0.00350952
-0.00701904
-0.0102234
-0.0131226
-0.0167847
-0.0202942
-0.0238037
-0.027771
-0.0314331
-0.0352478
-0.0382996
-0.0421143
-0.0448608
-0.0474548
-0.0495911
-0.0508118
-0.0518799
-0.0527954
-0.0526428
-0.052948
-0.0531006
-0.052948
-0.0524902
-0.0518799
-0.0520325
-0.0515747
-0.0521851
-0.052948
-0.0531006
-0.0540161
-0.0543213
-0.0541687
-0.0544739
-0.0541687
-0.0531006
-0.0517273
-0.0495911
-0.0482178
-0.0460815
-0.0440979
-0.0421143
-0.0408936
-0.0387573
-0.0379944
-0.037384
-0.0369263
-0.0366211
-0.0372314
-0.0378418
-0.0384521
-0.0396729
-0.040741
-0.0419617
-0.042572
-0.0427246
-0.0428772
-0.0421143
-0.0411987
-0.0398254
-0.0387573
-0.0376892
-0.0358582
-0.03479
-0.0335693
-0.032959
-0.0332642
-0.0332642
-0.0335693
-0.03479
-0.0364685
-0.0376892
-0.0398254
-0.0418091
-0.0434875
-0.0448608
-0.0454712
-0.045929
-0.0457764
-0.0454712
-0.0447083
-0.0431824
-0.040741
-0.0369263
-0.0328064
-0.0273132
-0.0202942
-0.0111389
-0.000305176
0.0128174
0.0285339
0.0471497
0.0691223
0.0939941
0.122375
0.153809
0.188141
0.22522
0.265045
0.307312
0.351868
0.39856
0.447083
0.497131
0.547943
0.599823
0.65155
0.703125
0.753174
0.801697
0.847626
0.890656
0.92926
0.963593
0.991974
1.01379
1.02722
1.0321
1.02722
1.01257
0.987396
0.952148
0.907288
0.852966
0.789795
0.718231
0.639648
0.554962
0.46463
0.371399
0.275421
0.179901
0.0854492
-0.00579834
-0.0918579
-0.171509
-0.24292
-0.306091
-0.359344
-0.40329
-0.436859
-0.461578
-0.476532
-0.483246
-0.48233
-0.475006
-0.461426
-0.44342
-0.4216
-0.397949
-0.372162
-0.345459
-0.318604
-0.292664
-0.267334
-0.24292
-0.220947
-0.200653
-0.182495
-0.166626
-0.152893
-0.142059
-0.132446
-0.124969
-0.119629
-0.115967
-0.113831
-0.11261
-0.112305
-0.113678
-0.114899
-0.117035
-0.118408
-0.120544
-0.121613
-0.122681
-0.122375
-0.12207
-0.121307
-0.120239
-0.118561
-0.116882
-0.114746
-0.11261
-0.110626
-0.109253
-0.107422
-0.106201
-0.105286
-0.10437
-0.103607
-0.102844
-0.102539
-0.101471
-0.100555
-0.0987244
-0.0961304
-0.0938416
-0.0915527
-0.0889587
-0.0862122
-0.0836182
-0.0813293
-0.0785828
-0.0765991
-0.0752258
-0.0740051
-0.072937
-0.0730896
-0.0727844
-0.0732422
-0.072937
-0.0730896
-0.0726318
-0.0724792
-0.0712585
-0.0697327
-0.0682068
-0.0666809
-0.0650024
-0.0627136
-0.0602722
-0.0584412
-0.0566101
-0.0543213
-0.0526428
-0.0512695
-0.0509644
-0.0502014
-0.0500488
-0.0495911
-0.0491333
-0.0482178
-0.0462341
-0.0445557
-0.042572
-0.0401306
-0.0378418
-0.0361633
-0.03479
-0.0337219
-0.0335693
-0.0335693
-0.0340271
-0.0346375
-0.0357056
-0.037384
-0.0384521
-0.0398254
-0.0408936
-0.0416565
-0.0421143
-0.0422668
-0.0418091
-0.0401306
-0.0384521
-0.0360107
-0.0334167
-0.030365
-0.0271606
-0.0244141
-0.0210571
-0.018158
-0.0152588
-0.01297
-0.0112915
-0.00961304
-0.00915527
-0.00854492
-0.0088501
-0.00976562
-0.00976562
-0.0100708
-0.0102234
-0.00991821
-0.00915527
-0.00793457
-0.00595093
-0.00396729
-0.00137329
0.000762939
0.00350952
0.0062561
0.00915527
0.0119019
0.0138855
0.0158691
0.0178528
0.0189209
0.019989
0.0202942
0.0209045
0.0216675
0.0219727
0.0231934
0.0250244
0.0262451
0.0285339
0.0308228
0.0334167
0.0363159
0.0389099
0.0416565
0.0440979
0.0473022
0.0500488
0.0523376
0.0543213
0.0564575
0.0582886
0.059967
0.0616455
0.0639343
0.0663757
0.0691223
0.0723267
0.0756836
0.0794983
0.083313
0.0871277
0.0907898
0.0952148
0.0990295
0.102997
0.106506
0.109863
0.113068
0.115662
0.118103
0.120087
0.122528
0.124512
0.126495
0.129089
0.131683
0.13504
0.138702
0.142365
0.146637
0.150909
0.155029
0.159149
0.163422
0.167694
0.171661
0.175018
0.178223
0.181122
0.183411
0.185547
0.186768
0.188446
0.189819
0.19104
0.192566
0.19455
0.196381
0.198364
0.200806
0.2034
0.205994
0.208435
0.210724
0.213165
0.215454
0.21698
0.218506
0.219727
0.220184
0.22049
0.219879
0.219879
0.219421
0.218964
0.218811
0.218048
0.21759
0.217133
0.216064
0.214539
0.212708
0.210419
0.207367
0.204315
0.199738
0.194702
0.189209
0.18219
0.174561
0.166626
0.157471
0.148468
0.139618
0.129852
0.120544
0.111542
0.102692
0.0939941
0.0856018
0.0773621
0.0688171
0.06073
0.0521851
0.0444031
0.0369263
0.0282288
0.019989
0.0114441
0.00244141
-0.00610352
-0.0146484
-0.0231934
-0.0306702
-0.0382996
-0.0448608
-0.0509644
-0.0569153
-0.0616455
-0.0662231
-0.070343
-0.0743103
-0.0775146
-0.0808716
-0.0839233
-0.0871277
-0.0901794
-0.0933838
-0.0964355
-0.0996399
-0.102997
-0.106201
-0.1091
-0.111847
-0.114288
-0.115662
-0.117188
-0.117798
-0.118256
-0.11795
-0.117645
-0.11673
-0.115967
-0.114899
-0.113678
-0.113373
-0.112
-0.111694
-0.112305
-0.112762
-0.11322
-0.113831
-0.114594
-0.115204
-0.115967
-0.116425
-0.116272
-0.116425
-0.115509
-0.114288
-0.113678
-0.112457
-0.111389
-0.110168
-0.109253
-0.10849
-0.108032
-0.107574
-0.108185
-0.107727
-0.108032
-0.108337
-0.108643
-0.108948
-0.108948
-0.108032
-0.106964
-0.105591
-0.104065
-0.102081
-0.0999451
-0.0979614
-0.0958252
-0.0933838
-0.0915527
-0.0897217
-0.0881958
-0.0874329
-0.0869751
-0.0871277
-0.0871277
-0.0874329
-0.087738
-0.088501
-0.0883484
-0.0888062
-0.088501
-0.087738
-0.0869751
-0.0854492
-0.0842285
-0.0828552
-0.0817871
-0.0805664
-0.0796509
-0.0785828
-0.078125
-0.0778198
-0.0776672
-0.078125
-0.0784302
-0.0793457
-0.0796509
-0.0805664
-0.0810242
-0.0811768
-0.0810242
-0.0805664
-0.0794983
-0.0787354
-0.0775146
-0.0756836
-0.0744629
-0.0726318
-0.0714111
-0.0701904
-0.068512
-0.0680542
-0.0675964
-0.067749
-0.0675964
-0.0675964
-0.067749
-0.0680542
-0.068512
-0.0679016
-0.0668335
-0.065918
-0.0642395
-0.0627136
-0.0610352
-0.0592041
-0.0572205
-0.0553894
-0.0534058
-0.0520325
-0.0502014
-0.0494385
-0.0488281
-0.0485229
-0.0483704
-0.0485229
-0.0489807
-0.0489807
-0.0494385
-0.0492859
-0.0486755
-0.0485229
-0.0479126
-0.0469971
-0.045929
-0.0448608
-0.0445557
-0.0434875
-0.0431824
-0.042572
-0.0421143
-0.0422668
-0.0430298
-0.0437927
-0.0445557
-0.045166
-0.0462341
-0.0468445
-0.0473022
-0.0471497
-0.0463867
-0.0457764
-0.0447083
-0.0430298
-0.0419617
-0.0401306
-0.038147
-0.0370789
-0.0352478
-0.0340271
-0.0335693
-0.0332642
-0.032959
-0.0338745
-0.0344849
-0.0360107
-0.0364685
-0.037384
-0.0384521
-0.0389099
-0.0392151
-0.0386047
-0.038147
-0.0375366
-0.0363159
-0.0354004
-0.0340271
-0.0325012
-0.0311279
-0.0305176
-0.0299072
-0.0299072
-0.0297546
-0.0299072
-0.030365
-0.0314331
-0.0323486
-0.0332642
-0.0341797
-0.03479
-0.0352478
-0.0349426
-0.0346375
-0.0341797
-0.0337219
-0.0331116
-0.0325012
-0.032196
-0.0317383
-0.0315857
-0.0320435
-0.0318909
-0.032959
-0.0335693
-0.0349426
-0.0358582
-0.0364685
-0.0378418
-0.038147
-0.0384521
-0.038147
-0.037384
-0.0367737
-0.0350952
-0.0340271
-0.0326538
-0.0311279
-0.0306702
-0.0291443
-0.0283813
-0.0280762
-0.0280762
-0.0286865
-0.0297546
-0.0305176
-0.0317383
-0.0335693
-0.0344849
-0.0357056
-0.0369263
-0.037384
-0.0372314
-0.0364685
-0.0360107
-0.035553
-0.0346375
-0.0335693
-0.0332642
-0.0320435
-0.0315857
-0.0308228
-0.0306702
-0.0314331
-0.0312805
-0.0318909
-0.0331116
-0.0338745
-0.0341797
-0.0346375
-0.0349426
-0.0346375
-0.0337219
-0.0328064
-0.0315857
-0.0306702
-0.0292969
-0.0283813
-0.0274658
-0.0263977
-0.0256348
-0.0248718
-0.0253296
-0.0253296
-0.0263977
-0.0268555
-0.0283813
-0.0292969
-0.0299072
-0.0309753
-0.0311279
-0.0308228
-0.0309753
-0.0300598
-0.0288391
-0.0280762
-0.0270081
-0.0256348
-0.0244141
-0.0239563
-0.0231934
-0.0227356
-0.022583
-0.0230408
-0.0233459
-0.0245667
-0.0254822
-0.0267029
-0.0274658
-0.0285339
-0.0292969
-0.0294495
-0.0294495
-0.0289917
-0.0288391
-0.027771
-0.0267029
-0.0259399
-0.025177
-0.0244141
-0.0238037
-0.0231934
-0.0233459
-0.0236511
-0.0242615
-0.0250244
-0.0257874
-0.0270081
-0.027771
-0.0286865
-0.0296021
-0.0299072
-0.0299072
-0.0299072
-0.0291443
-0.0285339
-0.0279236
-0.0268555
-0.0260925
-0.0253296
-0.0247192
-0.0242615
-0.0239563
-0.0244141
-0.0245667
-0.0253296
-0.0257874
-0.0267029
-0.0268555
-0.0273132
-0.0271606
-0.0268555
-0.0265503
-0.0254822
-0.0242615
-0.0234985
-0.0222778
-0.0205994
-0.0195312
-0.0189209
-0.0180054
-0.0175476
-0.017395
-0.0175476
-0.018158
-0.0180054
-0.0186157
-0.0186157
-0.0189209
-0.0183105
-0.0177002
-0.0167847
-0.0149536
-0.0131226
-0.0109863
-0.00854492
-0.00595093
-0.00366211
-0.000457764
0.00244141
0.00518799
0.00778198
0.00991821
0.0120544
0.0140381
0.0157166
0.0167847
0.0186157
0.019989
0.0216675
0.0234985
0.0256348
0.0283813
0.0308228
0.0331116
0.035553
0.0384521
0.0402832
0.0427246
0.0444031
0.0454712
0.0466919
0.0465393
0.0460815
0.0448608
0.0437927
0.0419617
0.0405884
0.0393677
0.0384521
0.0379944
0.0386047
0.0393677
0.0404358
0.042572
0.0447083
0.0474548
0.0506592
0.052948
0.0558472
0.0584412
0.0605774
0.0624084
0.063324
0.0645447
0.0646973
0.0643921
0.0642395
0.0631714
0.0624084
0.0611877
0.059967
0.0584412
0.0566101
0.0544739
0.0518799
0.0488281
0.0450134
0.0416565
0.0379944
0.0332642
0.0288391
0.0231934
0.0180054
0.0125122
0.00701904
0.00106812
-0.00457764
-0.00946045
-0.0144958
-0.0190735
-0.0228882
-0.0260925
-0.0285339
-0.0308228
-0.032959
-0.0354004
-0.0366211
-0.0384521
-0.039978
-0.0413513
-0.043335
-0.0457764
-0.0483704
-0.050354
-0.0532532
-0.0561523
-0.0590515
-0.0616455
-0.0634766
-0.0648499
-0.0660706
-0.0666809
-0.0666809
-0.0666809
-0.065918
-0.0653076
-0.0642395
-0.0631714
-0.0616455
-0.06073
-0.0602722
-0.0596619
-0.0593567
-0.0595093
-0.0596619
-0.0604248
-0.06073
-0.0613403
-0.0616455
-0.0617981
-0.0614929
-0.0610352
-0.0601196
-0.0592041
-0.0576782
-0.0563049
-0.055542
-0.0535583
-0.0521851
-0.0511169
-0.0506592
-0.0497437
-0.0491333
-0.0497437
-0.0497437
-0.0498962
-0.0500488
-0.0508118
-0.050354
-0.0502014
-0.0492859
-0.0485229
-0.04776
-0.0469971
-0.0457764
-0.045166
-0.0454712
-0.0456238
-0.0462341
-0.0468445
-0.0480652
-0.0494385
-0.0514221
-0.0527954
-0.0544739
-0.0550842
-0.0553894
-0.0546265
-0.0527954
-0.0491333
-0.043335
-0.0350952
-0.0245667
-0.0115967
0.00427246
0.0233459
0.0456238
0.0715637
0.100098
0.13092
0.164337
0.200348
0.238495
0.278778
0.321198
0.365906
0.411987
0.460052
0.509338
0.559998
0.611725
0.664368
0.717163
0.769196
0.819855
0.867615
0.91217
0.952454
0.987244
1.01517
1.03516
1.04614
1.04675
1.03683
1.01669
0.986023
0.944672
0.893402
0.83313
0.76355
0.686188
0.601807
0.511322
0.415955
0.317993
0.218964
0.12085
0.025177
-0.0665283
-0.153046
-0.231934
-0.303802
-0.366211
-0.419617
-0.462189
-0.494537
-0.516357
-0.528107
-0.529633
-0.523071
-0.508575
-0.486908
-0.46051
-0.430756
-0.397949
-0.364227
-0.330658
-0.297852
-0.267029
-0.238647
-0.213928
-0.192108
-0.174103
-0.158997
-0.147858
-0.140076
-0.134277
-0.130768
-0.129547
-0.129089
-0.129242
-0.130615
-0.131836
-0.13382
-0.135803
-0.137482
-0.138702
-0.139923
-0.140686
-0.140991
-0.141449
-0.141449
-0.141602
-0.141602
-0.141144
-0.140839
-0.139618
-0.138702
-0.137482
-0.135345
-0.133362
-0.130768
-0.128632
-0.125885
-0.123596
-0.120697
-0.118561
-0.116119
-0.114288
-0.112152
-0.110474
-0.109406
-0.108948
-0.108643
-0.108795
-0.10849
-0.10849
-0.108337
-0.10788
-0.107422
-0.105896
-0.10498
-0.103302
-0.101318
-0.0991821
-0.0971985
-0.0949097
-0.0927734
-0.0906372
-0.0886536
-0.087738
-0.0863647
-0.085907
-0.085144
-0.0849915
-0.085144
-0.0848389
-0.0849915
-0.0845337
-0.0836182
-0.0823975
-0.0808716
-0.0788879
-0.0769043
-0.0749207
-0.0724792
-0.0700378
-0.0679016
-0.0656128
-0.0637817
-0.0621033
-0.0610352
-0.0601196
-0.0602722
-0.0598145
-0.0595093
-0.0596619
-0.0595093
-0.0595093
-0.0584412
-0.057373
-0.0566101
-0.0546265
-0.0527954
-0.0514221
-0.0492859
-0.0471497
-0.0453186
-0.0439453
-0.0424194
-0.0410461
-0.0408936
-0.0398254
-0.0401306
-0.0401306
-0.0401306
-0.0402832
-0.0401306
-0.039978
-0.0393677
-0.0382996
-0.037384
-0.035553
-0.0337219
-0.0320435
-0.0297546
-0.0274658
-0.0256348
-0.0233459
-0.0213623
-0.019989
-0.0189209
-0.0175476
-0.0164795
-0.0161743
-0.0158691
-0.0154114
-0.0146484
-0.0140381
-0.0128174
-0.0111389
-0.00900269
-0.00640869
-0.00427246
-0.00137329
0.0012207
0.00396729
0.00640869
0.00900269
0.0112915
0.0131226
0.015564
0.0172424
0.0184631
0.0202942
0.0212097
0.0228882
0.0248718
0.0263977
0.0283813
0.0309753
0.0334167
0.0370789
0.039978
0.0436401
0.0473022
0.0514221
0.0550842
0.0590515
0.0627136
0.0660706
0.0689697
0.0712585
0.0737
0.075531
0.0776672
0.0796509
0.0817871
0.0845337
0.0875854
0.0907898
0.0949097
0.0991821
0.10376
0.108185
0.11261
0.117493
0.12146
0.126343
0.13031
0.134277
0.138092
0.140686
0.14389
0.146027
0.148621
0.150757
0.15274
0.155029
0.157471
0.16037
0.163727
0.166931
0.170746
0.174408
0.17746
0.181427
0.184784
0.188293
0.19165
0.194244
0.196228
0.198212
0.199432
0.200958
0.202179
0.2034
0.20462
0.205841
0.20752
0.209656
0.211182
0.213776
0.215607
0.217743
0.219421
0.220947
0.222321
0.223541
0.224152
0.223846
0.222778
0.221252
0.218353
0.215149
0.211334
0.206757
0.202026
0.196686
0.191345
0.186005
0.180359
0.174561
0.168304
0.162201
0.15564
0.147858
0.140533
0.132599
0.124207
0.115356
0.106201
0.0965881
0.0862122
0.0758362
0.0654602
0.0547791
0.0440979
0.03479
0.0253296
0.0163269
0.00823975
0.000915527
-0.00640869
-0.0131226
-0.019989
-0.0260925
-0.032196
-0.0378418
-0.0434875
-0.0492859
-0.0552368
-0.0611877
-0.0669861
-0.0724792
-0.0785828
-0.0839233
-0.0888062
-0.0932312
-0.0970459
-0.100403
-0.102539
-0.104675
-0.106659
-0.10849
-0.109406
-0.110016
-0.110931
-0.111389
-0.11261
-0.11322
-0.114288
-0.115356
-0.117035
-0.118561
-0.120392
-0.121613
-0.122681
-0.123596
-0.124512
-0.124359
-0.123596
-0.123138
-0.122375
-0.12146
-0.120087
-0.119171
-0.11795
-0.117188
-0.115967
-0.115204
-0.115509
-0.115051
-0.115051
-0.115204
-0.115814
-0.115814
-0.115967
-0.115509
-0.115204
-0.113983
-0.112305
-0.111084
-0.108643
-0.106964
-0.104675
-0.102692
-0.100403
-0.0987244
-0.0970459
-0.0958252
-0.0950623
-0.0942993
-0.0944519
-0.0942993
-0.0950623
-0.0950623
-0.0952148
-0.0958252
-0.0956726
-0.0949097
-0.0944519
-0.0933838
-0.0923157
-0.0907898
-0.0901794
-0.0888062
-0.0875854
-0.0863647
-0.0854492
-0.085144
-0.0849915
-0.0849915
-0.0848389
-0.0856018
-0.0854492
-0.085907
-0.0857544
-0.0852966
-0.0843811
-0.0831604
-0.0816345
-0.0796509
-0.0779724
-0.0753784
-0.0733948
-0.0708008
-0.0689697
-0.0672913
-0.0657654
-0.0643921
-0.0637817
-0.0630188
-0.0631714
-0.0636292
-0.0642395
-0.065155
-0.0657654
-0.065918
-0.0662231
-0.0663757
-0.0656128
-0.065155
-0.0640869
-0.0630188
-0.0619507
-0.0604248
-0.0588989
-0.0575256
-0.0567627
-0.0563049
-0.0558472
-0.055542
-0.0556946
-0.0563049
-0.0566101
-0.0567627
-0.0566101
-0.0569153
-0.0564575
-0.0553894
-0.0544739
-0.0531006
-0.0514221
-0.0498962
-0.0479126
-0.0462341
-0.0450134
-0.0430298
-0.0421143
-0.0410461
-0.0404358
-0.0402832
-0.0401306
-0.0404358
-0.0408936
-0.0413513
-0.0418091
-0.0411987
-0.0413513
-0.0408936
-0.039978
-0.0387573
-0.0372314
-0.0360107
-0.0349426
-0.0334167
-0.0323486
-0.0312805
-0.030365
-0.0302124
-0.0299072
-0.0306702
-0.0315857
-0.0328064
-0.0338745
-0.0352478
-0.0366211
-0.0370789
-0.0375366
-0.0375366
-0.0370789
-0.0364685
-0.0354004
-0.0346375
-0.0334167
-0.0326538
-0.0312805
-0.0299072
-0.0288391
-0.0283813
-0.0283813
-0.0279236
-0.0285339
-0.0285339
-0.0288391
-0.0292969
-0.0300598
-0.0297546
-0.0300598
-0.0294495
-0.0288391
-0.0282288
-0.0267029
-0.0259399
-0.0248718
-0.0236511
-0.0230408
-0.0216675
-0.0215149
-0.0210571
-0.0209045
-0.0212097
-0.0224304
-0.0228882
-0.0239563
-0.0250244
-0.0262451
-0.0268555
-0.0271606
-0.0268555
-0.0268555
-0.0257874
-0.0250244
-0.0242615
-0.0230408
-0.0219727
-0.0215149
-0.020752
-0.0198364
-0.0195312
-0.0202942
-0.0204468
-0.0216675
-0.0222778
-0.0234985
-0.0242615
-0.025177
-0.0260925
-0.0263977
-0.0259399
-0.0257874
-0.0248718
-0.0238037
-0.0230408
-0.0219727
-0.0210571
-0.019989
-0.0190735
-0.0184631
-0.0183105
-0.0186157
-0.0187683
-0.0196838
-0.020752
-0.0216675
-0.0231934
-0.0245667
-0.0254822
-0.0256348
-0.0262451
-0.0257874
-0.0253296
-0.0245667
-0.0236511
-0.0230408
-0.0222778
-0.0210571
-0.0204468
-0.0195312
-0.0196838
-0.019989
-0.0202942
-0.0212097
-0.0222778
-0.0233459
-0.0248718
-0.0253296
-0.0262451
-0.0262451
-0.0256348
-0.0254822
-0.0247192
-0.0236511
-0.022583
-0.0218201
-0.0209045
-0.0201416
-0.0186157
-0.0180054
-0.018158
-0.0183105
-0.0186157
-0.0189209
-0.019989
-0.0209045
-0.0215149
-0.0222778
-0.0231934
-0.0231934
-0.0227356
-0.0224304
-0.0216675
-0.0205994
-0.019989
-0.0189209
-0.018158
-0.0170898
-0.0163269
-0.0152588
-0.0151062
-0.0149536
-0.0157166
-0.0166321
-0.0180054
-0.0195312
-0.0210571
-0.0216675
-0.0227356
-0.0233459
-0.0234985
-0.0233459
-0.0227356
-0.0222778
-0.0213623
-0.0210571
-0.0201416
-0.0193787
-0.0183105
-0.0178528
-0.017395
-0.0177002
-0.018158
-0.0189209
-0.0198364
-0.0205994
-0.0212097
-0.0219727
-0.022583
-0.0227356
-0.0222778
-0.0218201
-0.0215149
-0.020752
-0.0201416
-0.0190735
-0.0184631
-0.0172424
-0.0164795
-0.0161743
-0.0158691
-0.0161743
-0.0170898
-0.0177002
-0.0189209
-0.0202942
-0.0212097
-0.0222778
-0.0222778
-0.0219727
-0.0212097
-0.0196838
-0.018158
-0.0164795
-0.0146484
-0.0125122
-0.0100708
-0.00808716
-0.00549316
-0.00335693
-0.00137329
0.000457764
0.00244141
0.0038147
0.00549316
0.00717163
0.00900269
0.0111389
0.0137329
0.0166321
0.0201416
0.0233459
0.0273132
0.0312805
0.0349426
0.0386047
0.0419617
0.0454712
0.0485229
0.0511169
0.052948
0.0543213
0.0550842
0.0550842
0.0546265
0.0538635
0.0532532
0.0521851
0.050354
0.0494385
0.0486755
0.0480652
0.0479126
0.04776
0.0480652
0.0485229
0.0497437
0.0509644
0.0524902
0.0544739
0.055542
0.0567627
0.0579834
0.0593567
0.0602722
0.0611877
0.0619507
0.0631714
0.0640869
0.065155
0.0671387
0.0683594
0.0695801
0.0708008
0.0712585
0.0717163
0.0714111
0.0701904
0.068512
0.065918
0.0622559
0.0579834
0.0526428
0.0469971
0.0413513
0.0350952
0.0288391
0.0228882
0.0167847
0.0117493
0.00686646
0.00228882
-0.00167847
-0.00564575
-0.00946045
-0.0125122
-0.0157166
-0.018158
-0.0215149
-0.0244141
-0.0273132
-0.0308228
-0.0341797
-0.0376892
-0.0413513
-0.0453186
-0.0486755
-0.0518799
-0.0543213
-0.0567627
-0.0585938
-0.0596619
-0.06073
-0.0610352
-0.0614929
-0.0616455
-0.0614929
-0.0610352
-0.0602722
-0.0601196
-0.059967
-0.059967
-0.0598145
-0.0601196
-0.0601196
-0.0598145
-0.0608826
-0.06073
-0.0601196
-0.0595093
-0.0585938
-0.057373
-0.0556946
-0.0546265
-0.0531006
-0.0518799
-0.0508118
-0.0492859
-0.0480652
-0.0474548
-0.0469971
-0.0471497
-0.0471497
-0.0480652
-0.0485229
-0.0495911
-0.0505066
-0.0511169
-0.0517273
-0.0515747
-0.0511169
-0.0508118
-0.0495911
-0.0485229
-0.04776
-0.0457764
-0.0444031
-0.0430298
-0.0411987
-0.0404358
-0.039978
-0.0402832
-0.0419617
-0.0431824
-0.0454712
-0.0482178
-0.050354
-0.0524902
-0.0544739
-0.0553894
-0.0558472
-0.0553894
-0.0546265
-0.0524902
-0.0494385
-0.0450134
-0.0389099
-0.0318909
-0.0227356
-0.0112915
0.00320435
0.0190735
0.0386047
0.0610352
0.0862122
0.114594
0.146179
0.179749
0.217438
0.257416
0.300598
0.346985
0.39444
0.444183
0.495605
0.547791
0.600281
0.654297
0.707397
0.760498
0.811157
0.859528
0.904236
0.944214
0.979309
1.0083
1.0289
1.04233
1.04584
1.03928
1.02325
0.996857
0.960388
0.913849
0.858002
0.792694
0.718842
0.637207
0.549011
0.45517
0.357208
0.257263
0.157623
0.0587463
-0.0357056
-0.125427
-0.20874
-0.283813
-0.349426
-0.405121
-0.449982
-0.484009
-0.507202
-0.519867
-0.522919
-0.51712
-0.503998
-0.483398
-0.458069
-0.429535
-0.397949
-0.365601
-0.333557
-0.301971
-0.272217
-0.244904
-0.220032
-0.198059
-0.179443
-0.163574
-0.150146
-0.140076
-0.131683
-0.126343
-0.122833
-0.121307
-0.121002
-0.12146
-0.123291
-0.12558
-0.128326
-0.131378
-0.13504
-0.138397
-0.141296
-0.144348
-0.146484
-0.148315
-0.149231
-0.149078
-0.148621
-0.146942
-0.144806
-0.142212
-0.13916
-0.136108
-0.132751
-0.129089
-0.126038
-0.122986
-0.119934
-0.11795
-0.115967
-0.114441
-0.11322
-0.11261
-0.111542
-0.110626
-0.109406
-0.10788
-0.105743
-0.10437
-0.102081
-0.0997925
-0.0979614
-0.0958252
-0.0935364
-0.0917053
-0.0898743
-0.088501
-0.0872803
-0.0868225
-0.0869751
-0.0868225
-0.0865173
-0.0871277
-0.0869751
-0.0868225
-0.0868225
-0.0857544
-0.0846863
-0.0827026
-0.0805664
-0.0785828
-0.0765991
-0.0743103
-0.0718689
-0.0698853
-0.067749
-0.0656128
-0.0643921
-0.0634766
-0.0622559
-0.0619507
-0.0614929
-0.0613403
-0.0608826
-0.0604248
-0.059967
-0.0592041
-0.058136
-0.0564575
-0.0544739
-0.0526428
-0.0508118
-0.0486755
-0.0462341
-0.0436401
-0.0411987
-0.0392151
-0.038147
-0.0370789
-0.0363159
-0.0358582
-0.0358582
-0.0360107
-0.0357056
-0.035553
-0.0354004
-0.03479
-0.0337219
-0.032196
-0.0305176
-0.0286865
-0.0271606
-0.025177
-0.0233459
-0.0218201
-0.0201416
-0.0183105
-0.017395
-0.0164795
-0.0158691
-0.015564
-0.0154114
-0.0149536
-0.0144958
-0.0138855
-0.0131226
-0.012207
-0.0102234
-0.00839233
-0.00579834
-0.00335693
-0.000915527
0.00198364
0.00411987
0.00671387
0.00930786
0.0115967
0.0132751
0.014801
0.0158691
0.0167847
0.0177002
0.0183105
0.0189209
0.019989
0.0210571
0.0227356
0.025177
0.0271606
0.0302124
0.032959
0.0358582
0.0389099
0.0418091
0.045166
0.0483704
0.0512695
0.0537109
0.0563049
0.0582886
0.0605774
0.0619507
0.0639343
0.0660706
0.0682068
0.070343
0.0732422
0.0762939
0.0804138
0.0846863
0.0886536
0.0926208
0.0971985
0.101776
0.106354
0.110474
0.114288
0.118103
0.121613
0.124664
0.127869
0.13031
0.132294
0.135498
0.137787
0.140686
0.144043
0.1474
0.151062
0.155182
0.158997
0.162964
0.167084
0.171051
0.175018
0.178833
0.182343
0.185547
0.188751
0.19104
0.193176
0.19516
0.196533
0.198517
0.199738
0.202179
0.204163
0.206604
0.208893
0.211792
0.214386
0.216827
0.219269
0.221252
0.223694
0.22522
0.226746
0.227509
0.227356
0.227051
0.225525
0.223846
0.221863
0.219269
0.217285
0.214386
0.211945
0.209961
0.207672
0.205078
0.202026
0.19928
0.195923
0.191498
0.186768
0.181274
0.175171
0.168457
0.160828
0.153198
0.144501
0.135345
0.125732
0.115967
0.106201
0.096283
0.0869751
0.0782776
0.0691223
0.0605774
0.0526428
0.0444031
0.0369263
0.0292969
0.0219727
0.0146484
0.00732422
-0.000457764
-0.00778198
-0.015564
-0.0231934
-0.0311279
-0.0382996
-0.0457764
-0.0523376
-0.0585938
-0.0642395
-0.0686646
-0.0727844
-0.0769043
-0.0798035
-0.08255
-0.0849915
-0.0871277
-0.0889587
-0.0907898
-0.0926208
-0.0942993
-0.096283
-0.098877
-0.101318
-0.10376
-0.106201
-0.108032
-0.109253
-0.110474
-0.111389
-0.111542
-0.111542
-0.111084
-0.110931
-0.109711
-0.1091
-0.108643
-0.107574
-0.107422
-0.106812
-0.106506
-0.106964
-0.107574
-0.10849
-0.109253
-0.110474
-0.111389
-0.112305
-0.113068
-0.11322
-0.112762
-0.112305
-0.111389
-0.110321
-0.109253
-0.108337
-0.106506
-0.104828
-0.103912
-0.102692
-0.102386
-0.101776
-0.101776
-0.101318
-0.101776
-0.101776
-0.102081
-0.102081
-0.102386
-0.101776
-0.100555
-0.0991821
-0.098114
-0.0958252
-0.0939941
-0.0923157
-0.0901794
-0.0889587
-0.0874329
-0.0860596
-0.085144
-0.0848389
-0.0848389
-0.0856018
-0.0860596
-0.0866699
-0.0874329
-0.0874329
-0.087738
-0.0874329
-0.0865173
-0.085144
-0.0837708
-0.0822449
-0.080719
-0.0788879
-0.0773621
-0.0752258
-0.0738525
-0.0726318
-0.0714111
-0.0712585
-0.0704956
-0.0701904
-0.0701904
-0.0706482
-0.0709534
-0.0714111
-0.0712585
-0.0708008
-0.0700378
-0.0692749
-0.0682068
-0.0668335
-0.0653076
-0.0640869
-0.0627136
-0.0608826
-0.059967
-0.0588989
-0.0584412
-0.057373
-0.0569153
-0.0576782
-0.0578308
-0.0578308
-0.0579834
-0.0578308
-0.0572205
-0.0566101
-0.055542
-0.0541687
-0.0524902
-0.0505066
-0.0486755
-0.0465393
-0.0450134
-0.042572
-0.040741
-0.0389099
-0.038147
-0.037384
-0.0372314
-0.0364685
-0.0369263
-0.037384
-0.037384
-0.0375366
-0.0376892
-0.037384
-0.0369263
-0.0357056
-0.0349426
-0.0337219
-0.0328064
-0.032196
-0.0311279
-0.0300598
-0.0291443
-0.0288391
-0.0294495
-0.0292969
-0.0305176
-0.0314331
-0.0323486
-0.0338745
-0.0346375
-0.035553
-0.0361633
-0.0361633
-0.035553
-0.0349426
-0.0340271
-0.0325012
-0.0309753
-0.0297546
-0.0283813
-0.0270081
-0.0259399
-0.0248718
-0.0244141
-0.0241089
-0.0247192
-0.0250244
-0.0260925
-0.0270081
-0.0276184
-0.0282288
-0.0289917
-0.0294495
-0.0291443
-0.0285339
-0.027771
-0.0267029
-0.0262451
-0.025177
-0.0241089
-0.0231934
-0.0218201
-0.0215149
-0.0209045
-0.0212097
-0.0216675
-0.0227356
-0.0234985
-0.0247192
-0.0260925
-0.0274658
-0.0283813
-0.0282288
-0.0283813
-0.0280762
-0.0273132
-0.0262451
-0.0254822
-0.0245667
-0.0234985
-0.0224304
-0.0216675
-0.0209045
-0.0212097
-0.0209045
-0.0215149
-0.022583
-0.0233459
-0.0245667
-0.0253296
-0.0265503
-0.0270081
-0.0273132
-0.0274658
-0.0276184
-0.0268555
-0.0265503
-0.0260925
-0.0254822
-0.0248718
-0.0245667
-0.0239563
-0.0236511
-0.0238037
-0.0244141
-0.0253296
-0.0257874
-0.0268555
-0.027771
-0.0283813
-0.0289917
-0.0289917
-0.0286865
-0.0279236
-0.0270081
-0.0259399
-0.0247192
-0.0231934
-0.022583
-0.0213623
-0.0202942
-0.0195312
-0.0190735
-0.0193787
-0.019989
-0.0209045
-0.0221252
-0.0236511
-0.025177
-0.0262451
-0.027771
-0.0286865
-0.0292969
-0.0296021
-0.0292969
-0.0285339
-0.0279236
-0.0273132
-0.0265503
-0.025177
-0.0247192
-0.0238037
-0.0231934
-0.0228882
-0.0233459
-0.0236511
-0.0244141
-0.025177
-0.0268555
-0.0282288
-0.0291443
-0.0302124
-0.0306702
-0.030365
-0.030365
-0.0302124
-0.0296021
-0.0292969
-0.0280762
-0.0276184
-0.0267029
-0.0263977
-0.0256348
-0.0256348
-0.0260925
-0.0267029
-0.0273132
-0.0282288
-0.0294495
-0.0300598
-0.0308228
-0.0309753
-0.0311279
-0.0306702
-0.0299072
-0.0296021
-0.0280762
-0.027771
-0.0265503
-0.0254822
-0.0247192
-0.0241089
-0.0234985
-0.0241089
-0.0239563
-0.0244141
-0.0254822
-0.0259399
-0.0267029
-0.0274658
-0.0280762
-0.0283813
-0.0282288
-0.027771
-0.0267029
-0.0256348
-0.0242615
-0.0227356
-0.0215149
-0.0205994
-0.0193787
-0.0186157
-0.0183105
-0.0184631
-0.0192261
-0.020752
-0.0221252
-0.0236511
-0.0254822
-0.0273132
-0.0288391
-0.0302124
-0.0315857
-0.0317383
-0.0318909
-0.032196
-0.0320435
-0.0312805
-0.030365
-0.0296021
-0.0286865
-0.0273132
-0.0265503
-0.0263977
-0.0260925
-0.0260925
-0.0259399
-0.0268555
-0.0267029
-0.0273132
-0.0273132
-0.0271606
-0.0262451
-0.0248718
-0.0233459
-0.0212097
-0.0189209
-0.0169373
-0.0146484
-0.0123596
-0.00991821
-0.00778198
-0.00549316
-0.00350952
-0.00213623
-0.000457764
0.000915527
0.00183105
0.00305176
0.00411987
0.00564575
0.00762939
0.00976562
0.01297
0.0158691
0.0193787
0.022583
0.0256348
0.0283813
0.0315857
0.0338745
0.0358582
0.038147
0.0392151
0.0396729
0.0398254
0.0398254
0.0395203
0.0389099
0.038147
0.0367737
0.0360107
0.0350952
0.0346375
0.03479
0.0346375
0.0346375
0.0357056
0.0363159
0.0375366
0.0392151
0.0402832
0.0418091
0.0430298
0.0448608
0.0462341
0.04776
0.0489807
0.0502014
0.0511169
0.0524902
0.0538635
0.055542
0.0570679
0.0592041
0.06073
0.0627136
0.0639343
0.0646973
0.0646973
0.0640869
0.0634766
0.0611877
0.058136
0.0544739
0.0500488
0.0440979
0.0389099
0.032196
0.0259399
0.0195312
0.0132751
0.00762939
0.00259399
-0.00213623
-0.00671387
-0.0111389
-0.0157166
-0.0193787
-0.0238037
-0.0276184
-0.0314331
-0.0357056
-0.0396729
-0.0437927
-0.0480652
-0.052948
-0.0572205
-0.0614929
-0.0656128
-0.0692749
-0.0724792
-0.0750732
-0.0770569
-0.0782776
-0.0794983
-0.0801086
-0.0804138
-0.0805664
-0.080719
-0.0805664
-0.0801086
-0.0801086
-0.0804138
-0.080719
-0.0808716
-0.0819397
-0.0822449
-0.083313
-0.0834656
-0.0837708
-0.083313
-0.0834656
-0.0820923
-0.0810242
-0.0796509
-0.0784302
-0.0767517
-0.0759888
-0.0741577
-0.0727844
-0.0714111
-0.0701904
-0.0695801
-0.0697327
-0.0695801
-0.0697327
-0.0698853
-0.0698853
-0.0708008
-0.070343
-0.0701904
-0.070343
-0.0695801
-0.0683594
-0.0669861
-0.0654602
-0.0643921
-0.0628662
-0.0613403
-0.0598145
-0.0588989
-0.058136
-0.0582886
-0.0588989
-0.059967
-0.0622559
-0.0648499
-0.0674438
-0.0704956
-0.0737
-0.0762939
-0.0782776
-0.0794983
-0.0804138
-0.0804138
-0.0794983
-0.0772095
-0.0744629
-0.0701904
-0.0639343
-0.0559998
-0.0463867
-0.03479
-0.0201416
-0.00305176
0.0166321
0.0396729
0.0654602
0.0946045
0.126038
0.16098
0.198822
0.239716
0.283203
0.328369
0.376434
0.426025
0.475922
0.527802
0.580139
0.632324
0.684204
0.735168
0.783844
0.829468
0.871735
0.909882
0.94162
0.967865
0.985565
0.995789
0.995636
0.986023
0.966339
0.936584
0.897064
0.848083
0.789948
0.723572
0.649261
0.567474
0.480042
0.388489
0.292969
0.195618
0.0993347
0.00549316
-0.0843811
-0.16922
-0.245972
-0.314789
-0.374451
-0.423126
-0.462341
-0.49118
-0.510712
-0.520325
-0.521698
-0.514679
-0.501404
-0.48233
-0.459747
-0.43396
-0.406036
-0.377502
-0.348816
-0.321655
-0.295563
-0.271454
-0.248871
-0.229034
-0.211487
-0.196075
-0.183258
-0.172119
-0.163879
-0.157318
-0.152588
-0.148468
-0.146179
-0.145111
-0.144501
-0.145416
-0.146332
-0.147705
-0.149841
-0.151978
-0.153961
-0.155182
-0.15686
-0.157776
-0.157471
-0.15686
-0.15564
-0.153809
-0.152283
-0.150299
-0.148468
-0.146332
-0.144348
-0.142517
-0.141144
-0.140228
-0.139771
-0.139465
-0.138855
-0.13916
-0.138702
-0.138397
-0.138245
-0.137634
-0.136566
-0.134583
-0.132904
-0.130463
-0.127716
-0.125275
-0.122833
-0.120239
-0.116882
-0.114899
-0.11261
-0.110321
-0.109253
-0.108185
-0.107574
-0.106964
-0.106659
-0.106354
-0.106506
-0.106049
-0.105133
-0.103912
-0.102539
-0.101013
-0.0996399
-0.0979614
-0.0961304
-0.0942993
-0.0921631
-0.0907898
-0.0894165
-0.0889587
-0.0880432
-0.0874329
-0.0875854
-0.0872803
-0.0871277
-0.0869751
-0.0866699
-0.0852966
-0.0842285
-0.0823975
-0.0799561
-0.0782776
-0.0756836
-0.0726318
-0.0704956
-0.0679016
-0.065155
-0.0630188
-0.0613403
-0.059967
-0.0585938
-0.0579834
-0.0575256
-0.0578308
-0.0578308
-0.0582886
-0.0584412
-0.058136
-0.0578308
-0.0570679
-0.0559998
-0.0550842
-0.0543213
-0.0527954
-0.0512695
-0.0497437
-0.0486755
-0.0473022
-0.0460815
-0.0454712
-0.0448608
-0.0444031
-0.0444031
-0.0439453
-0.0434875
-0.0430298
-0.0419617
-0.0405884
-0.0387573
-0.0360107
-0.0331116
-0.030365
-0.0271606
-0.0242615
-0.0213623
-0.0183105
-0.0149536
-0.0120544
-0.00976562
-0.00778198
-0.00595093
-0.00473022
-0.00396729
-0.00350952
-0.00244141
-0.00213623
-0.00167847
-0.0012207
0.000305176
0.0012207
0.00259399
0.00457764
0.00640869
0.0088501
0.0109863
0.0134277
0.015564
0.018158
0.0204468
0.0227356
0.0242615
0.0260925
0.0279236
0.0296021
0.0315857
0.0338745
0.0360107
0.0390625
0.0422668
0.0460815
0.0500488
0.0549316
0.0590515
0.0637817
0.0682068
0.0727844
0.0773621
0.0808716
0.0854492
0.088501
0.0915527
0.0941467
0.096283
0.0985718
0.100555
0.102997
0.105438
0.10788
0.111237
0.114899
0.118713
0.122986
0.127106
0.131378
0.136261
0.140381
0.144653
0.149078
0.15274
0.156097
0.159302
0.161438
0.163727
0.165863
0.167542
0.169067
0.170746
0.172729
0.175018
0.177612
0.180359
0.182648
0.185242
0.187836
0.190125
0.192566
0.19455
0.196075
0.196991
0.197906
0.198059
0.197601
0.197144
0.196075
0.194855
0.193787
0.192413
0.190735
0.190125
0.189209
0.187683
0.18631
0.184784
0.182953
0.180206
0.177765
0.174255
0.169983
0.164795
0.159302
0.15274
0.144806
0.136871
0.128174
0.118866
0.109558
0.100098
0.0900269
0.0804138
0.0715637
0.0622559
0.0535583
0.0447083
0.0367737
0.0283813
0.0202942
0.0128174
0.00518799
-0.00274658
-0.0100708
-0.0183105
-0.0257874
-0.0332642
-0.0402832
-0.0476074
-0.0544739
-0.06073
-0.0665283
-0.0715637
-0.0765991
-0.080719
-0.0843811
-0.0878906
-0.0914001
-0.0938416
-0.0968933
-0.0996399
-0.102081
-0.104828
-0.107574
-0.110779
-0.113678
-0.11673
-0.119629
-0.122528
-0.124969
-0.127411
-0.128326
-0.129242
-0.129089
-0.128479
-0.127716
-0.126495
-0.125122
-0.123901
-0.12207
-0.120544
-0.119324
-0.118561
-0.117645
-0.117493
-0.118103
-0.118561
-0.119934
-0.120392
-0.121613
-0.121765
-0.122375
-0.122681
-0.122681
-0.12207
-0.121002
-0.120087
-0.118408
-0.116882
-0.115204
-0.113678
-0.112152
-0.110474
-0.109558
-0.108795
-0.10849
-0.108643
-0.108795
-0.108948
-0.109253
-0.109711
-0.110016
-0.109863
-0.109711
-0.108948
-0.10788
-0.107117
-0.106354
-0.105133
-0.104218
-0.103149
-0.101624
-0.100861
-0.0999451
-0.0990295
-0.0987244
-0.0982666
-0.0979614
-0.0970459
-0.0961304
-0.0953674
-0.093689
-0.0920105
-0.0898743
-0.0875854
-0.0857544
-0.0836182
-0.0817871
-0.0808716
-0.0798035
-0.0793457
-0.0794983
-0.0794983
-0.0801086
-0.0811768
-0.08255
-0.0836182
-0.0848389
-0.0863647
-0.0872803
-0.0880432
-0.0883484
-0.0883484
-0.0869751
-0.085907
-0.0837708
-0.0813293
-0.0788879
-0.0762939
-0.0733948
-0.070343
-0.0679016
-0.0653076
-0.0634766
-0.0617981
-0.0608826
-0.0605774
-0.0605774
-0.06073
-0.0605774
-0.0611877
-0.0611877
-0.0611877
-0.0604248
-0.0596619
-0.0592041
-0.0579834
-0.0572205
-0.0563049
-0.0552368
-0.0546265
-0.0534058
-0.0526428
-0.0526428
-0.0518799
-0.0521851
-0.0523376
-0.0524902
-0.0531006
-0.0534058
-0.0535583
-0.0537109
-0.0534058
-0.0527954
-0.0518799
-0.050354
-0.0488281
-0.0476074
-0.0463867
-0.0442505
-0.0430298
-0.0421143
-0.0408936
-0.040741
-0.0405884
-0.040741
-0.0411987
-0.0415039
-0.0419617
-0.0421143
-0.0421143
-0.0413513
-0.0408936
-0.0396729
-0.0379944
-0.0369263
-0.035553
-0.0335693
-0.032959
-0.0315857
-0.0306702
-0.0299072
-0.0292969
-0.0288391
-0.0289917
-0.0299072
-0.0309753
-0.0317383
-0.0332642
-0.0340271
-0.0352478
-0.0358582
-0.0361633
-0.0364685
-0.035553
-0.0349426
-0.0337219
-0.0326538
-0.0309753
-0.0302124
-0.0280762
-0.0268555
-0.0260925
-0.0260925
-0.0263977
-0.0267029
-0.0276184
-0.0288391
-0.0299072
-0.0308228
-0.0312805
-0.032196
-0.0320435
-0.0315857
-0.0308228
-0.0299072
-0.0292969
-0.0283813
-0.0270081
-0.0260925
-0.0248718
-0.0241089
-0.0233459
-0.0228882
-0.0231934
-0.0231934
-0.0238037
-0.0244141
-0.0250244
-0.0262451
-0.0268555
-0.0276184
-0.0276184
-0.0276184
-0.0279236
-0.0271606
-0.0267029
-0.0260925
-0.025177
-0.0244141
-0.0238037
-0.0228882
-0.0228882
-0.0233459
-0.0233459
-0.0241089
-0.0256348
-0.0270081
-0.0291443
-0.0317383
-0.0344849
-0.0366211
-0.0386047
-0.0401306
-0.0405884
-0.0401306
-0.0401306
-0.0389099
-0.0372314
-0.0349426
-0.032959
-0.0299072
-0.0279236
-0.0256348
-0.0244141
-0.0233459
-0.0219727
-0.0219727
-0.0218201
-0.0219727
-0.0218201
-0.0222778
-0.0219727
-0.0218201
-0.0215149
-0.0216675
-0.0209045
-0.0202942
-0.0198364
-0.0195312
-0.0184631
-0.0178528
-0.0180054
-0.0178528
-0.0184631
-0.0190735
-0.0202942
-0.0218201
-0.0236511
-0.0248718
-0.0263977
-0.0274658
-0.0282288
-0.0282288
-0.0280762
-0.0279236
-0.0276184
-0.0273132
-0.0273132
-0.0268555
-0.0270081
-0.0273132
-0.027771
-0.0282288
-0.0291443
-0.0308228
-0.0318909
-0.032959
-0.0344849
-0.0350952
-0.0358582
-0.0360107
-0.0360107
-0.0350952
-0.0337219
-0.032196
-0.0308228
-0.0283813
-0.0263977
-0.0239563
-0.0219727
-0.0196838
-0.0177002
-0.0164795
-0.0152588
-0.0141907
-0.0138855
-0.0135803
-0.01297
-0.0125122
-0.0120544
-0.0105286
-0.00946045
-0.00732422
-0.00457764
-0.00198364
0.000762939
0.00366211
0.00671387
0.00991821
0.0132751
0.0158691
0.018158
0.0204468
0.0219727
0.0234985
0.0244141
0.0250244
0.0259399
0.0268555
0.0273132
0.0282288
0.0289917
0.030365
0.0320435
0.0335693
0.03479
0.0366211
0.037384
0.0386047
0.0393677
0.0398254
0.0404358
0.0404358
0.0405884
0.0402832
0.0401306
0.039978
0.0401306
0.0405884
0.0413513
0.042572
0.0444031
0.0466919
0.0495911
0.0524902
0.055542
0.0584412
0.0617981
0.0648499
0.067749
0.0698853
0.0718689
0.0724792
0.0726318
0.0720215
0.0704956
0.0683594
0.0654602
0.0621033
0.058136
0.0541687
0.0500488
0.0454712
0.0410461
0.0372314
0.0325012
0.0274658
0.022583
0.0177002
0.0125122
0.00732422
0.00198364
-0.00350952
-0.00869751
-0.0146484
-0.0204468
-0.0256348
-0.0306702
-0.0350952
-0.0389099
-0.0427246
-0.045166
-0.0471497
-0.0491333
-0.0498962
-0.0511169
-0.0521851
-0.0524902
-0.052948
-0.0534058
-0.0541687
-0.0549316
-0.0563049
-0.0578308
-0.0598145
-0.0613403
-0.0634766
-0.065155
-0.0663757
-0.0671387
-0.0671387
-0.0665283
-0.0657654
-0.0642395
-0.0624084
-0.0601196
-0.0579834
-0.0558472
-0.0537109
-0.0517273
-0.0502014
-0.0486755
-0.0482178
-0.0482178
-0.0480652
-0.0485229
-0.0500488
-0.0514221
-0.0523376
-0.0535583
-0.0549316
-0.0553894
-0.055542
-0.0553894
-0.0546265
-0.0541687
-0.0527954
-0.0515747
-0.050354
-0.0488281
-0.0471497
-0.0462341
-0.0456238
-0.0447083
-0.0442505
-0.0445557
-0.0445557
-0.0447083
-0.0450134
-0.0454712
-0.0457764
-0.0457764
-0.0460815
-0.0460815
-0.0466919
-0.0468445
-0.0474548
-0.04776
-0.0482178
-0.0486755
-0.0491333
-0.0497437
-0.0498962
-0.0497437
-0.0492859
-0.0465393
-0.0431824
-0.0376892
-0.0302124
-0.019989
-0.00610352
0.0108337
0.0314331
0.0547791
0.0819397
0.11261
0.145874
0.181885
0.220032
0.260925
0.304108
0.349579
0.396271
0.444794
0.49408
0.544586
0.595551
0.64682
0.697021
0.746002
0.793457
0.838013
0.879059
0.91629
0.947876
0.973053
0.990448
0.999603
0.999451
0.98938
0.969391
0.939026
0.898895
0.849152
0.79071
0.724487
0.651245
0.572357
0.488892
0.402527
0.314178
0.22583
0.137939
0.0523376
-0.0289917
-0.106201
-0.176849
-0.240021
-0.29541
-0.342255
-0.379944
-0.409851
-0.431366
-0.445404
-0.452423
-0.453033
-0.448151
-0.438385
-0.4245
-0.407562
-0.387726
-0.365448
-0.342712
-0.319214
-0.295868
-0.273438
-0.25238
-0.232697
-0.214539
-0.198822
-0.184326
-0.172119
-0.162048
-0.153503
-0.147247
-0.142517
-0.139313
-0.136414
-0.134888
-0.13382
-0.132751
-0.132446
-0.131378
-0.130463
-0.128937
-0.128174
-0.126343
-0.125275
-0.123444
-0.122223
-0.120697
-0.119629
-0.118561
-0.118103
-0.11734
-0.11673
-0.115967
-0.115509
-0.114441
-0.113068
-0.111694
-0.109711
-0.106964
-0.104523
-0.102081
-0.0996399
-0.0973511
-0.0947571
-0.0926208
-0.091095
-0.0894165
-0.0889587
-0.0878906
-0.0880432
-0.088501
-0.0888062
-0.0897217
-0.0897217
-0.0901794
-0.0898743
-0.0894165
-0.0883484
-0.0869751
-0.0849915
-0.0823975
-0.0802612
-0.0776672
-0.0746155
-0.0720215
-0.0695801
-0.0669861
-0.0653076
-0.0639343
-0.0630188
-0.062561
-0.0621033
-0.0622559
-0.0624084
-0.0630188
-0.0636292
-0.0642395
-0.0637817
-0.0634766
-0.0628662
-0.0622559
-0.0614929
-0.0605774
-0.0595093
-0.0582886
-0.0572205
-0.0556946
-0.0549316
-0.0534058
-0.052948
-0.0515747
-0.0509644
-0.0500488
-0.0492859
-0.0485229
-0.0476074
-0.0463867
-0.0445557
-0.0428772
-0.040741
-0.038147
-0.0357056
-0.0332642
-0.0311279
-0.0289917
-0.0268555
-0.0254822
-0.0238037
-0.0231934
-0.0230408
-0.0228882
-0.0233459
-0.0234985
-0.0239563
-0.0242615
-0.0239563
-0.0234985
-0.0224304
-0.0205994
-0.0184631
-0.0160217
-0.0135803
-0.0109863
-0.00823975
-0.00549316
-0.00289917
-0.000457764
0.00106812
0.00259399
0.00366211
0.00411987
0.0050354
0.00488281
0.00534058
0.00518799
0.00595093
0.00640869
0.00671387
0.00808716
0.00946045
0.0112915
0.0134277
0.015564
0.018158
0.0205994
0.0233459
0.0259399
0.0280762
0.0299072
0.0315857
0.0328064
0.0343323
0.0354004
0.0367737
0.0379944
0.0395203
0.0413513
0.0442505
0.0471497
0.050354
0.0541687
0.0575256
0.0614929
0.0650024
0.0686646
0.0718689
0.0752258
0.0778198
0.0802612
0.0822449
0.0840759
0.0860596
0.0875854
0.0889587
0.0909424
0.0927734
0.0952148
0.0982666
0.101776
0.105591
0.109406
0.11322
0.117645
0.121918
0.126343
0.130768
0.134888
0.138702
0.142517
0.146027
0.148773
0.151978
0.154572
0.156555
0.159607
0.162201
0.164795
0.167694
0.171204
0.174408
0.177765
0.181427
0.184631
0.187988
0.190125
0.193024
0.195465
0.196991
0.198517
0.199432
0.19989
0.199738
0.199432
0.198975
0.199127
0.198669
0.198517
0.199127
0.199738
0.200806
0.201721
0.202789
0.203705
0.204163
0.204468
0.204163
0.203247
0.201263
0.198517
0.194702
0.19043
0.184937
0.17868
0.172577
0.165405
0.158386
0.151062
0.14328
0.135803
0.128174
0.120239
0.112762
0.104523
0.0967407
0.0888062
0.0810242
0.072937
0.0646973
0.0563049
0.0474548
0.0392151
0.0305176
0.0219727
0.01297
0.0050354
-0.00259399
-0.00976562
-0.0163269
-0.0215149
-0.0270081
-0.032196
-0.0369263
-0.0410461
-0.045166
-0.0494385
-0.052948
-0.0570679
-0.06073
-0.065155
-0.0695801
-0.0735474
-0.0784302
-0.08255
-0.0863647
-0.0907898
-0.0944519
-0.0971985
-0.0997925
-0.101624
-0.102386
-0.102844
-0.103149
-0.103149
-0.102539
-0.102234
-0.101318
-0.100555
-0.100555
-0.10025
-0.10025
-0.100861
-0.101166
-0.101929
-0.102386
-0.102539
-0.102997
-0.102539
-0.102081
-0.101318
-0.100098
-0.0985718
-0.0973511
-0.0961304
-0.0947571
-0.0933838
-0.0924683
-0.0915527
-0.0914001
-0.0917053
-0.0918579
-0.0926208
-0.0938416
-0.0946045
-0.0956726
-0.096283
-0.0970459
-0.0975037
-0.0975037
-0.0970459
-0.0956726
-0.0944519
-0.0935364
-0.0918579
-0.090332
-0.0888062
-0.0875854
-0.0860596
-0.0852966
-0.0843811
-0.0843811
-0.0840759
-0.0846863
-0.085144
-0.0846863
-0.0848389
-0.0846863
-0.0839233
-0.0828552
-0.0816345
-0.0799561
-0.0785828
-0.0769043
-0.0752258
-0.0737
-0.0720215
-0.070343
-0.0692749
-0.0683594
-0.067749
-0.067749
-0.067749
-0.0683594
-0.0689697
-0.0695801
-0.0701904
-0.070343
-0.0701904
-0.0695801
-0.0680542
-0.0668335
-0.065155
-0.063324
-0.0614929
-0.0593567
-0.0578308
-0.0561523
-0.0547791
-0.0534058
-0.0526428
-0.0526428
-0.0521851
-0.0524902
-0.0527954
-0.0531006
-0.0540161
-0.0541687
-0.0541687
-0.0541687
-0.0531006
-0.0523376
-0.0515747
-0.0498962
-0.0482178
-0.0466919
-0.0453186
-0.0431824
-0.0421143
-0.040741
-0.0401306
-0.039978
-0.0398254
-0.0404358
-0.0404358
-0.0408936
-0.0411987
-0.0418091
-0.0411987
-0.040741
-0.0398254
-0.0382996
-0.0376892
-0.0360107
-0.0350952
-0.0340271
-0.0328064
-0.0320435
-0.0312805
-0.0315857
-0.0315857
-0.0323486
-0.032959
-0.0338745
-0.0349426
-0.035553
-0.0364685
-0.0370789
-0.037384
-0.0366211
-0.0358582
-0.0346375
-0.032959
-0.0315857
-0.0299072
-0.0283813
-0.0267029
-0.025177
-0.0239563
-0.0233459
-0.0228882
-0.0227356
-0.0233459
-0.0242615
-0.0254822
-0.0265503
-0.027771
-0.0288391
-0.0297546
-0.0300598
-0.0300598
-0.0300598
-0.0292969
-0.0285339
-0.0276184
-0.0267029
-0.0254822
-0.0239563
-0.0230408
-0.0224304
-0.0216675
-0.0216675
-0.0215149
-0.0216675
-0.0221252
-0.0224304
-0.0228882
-0.0228882
-0.0228882
-0.0218201
-0.0209045
-0.0193787
-0.0183105
-0.0169373
-0.0158691
-0.0143433
-0.0135803
-0.0126648
-0.0125122
-0.0123596
-0.0126648
-0.0132751
-0.0143433
-0.0157166
-0.017395
-0.0183105
-0.0193787
-0.0204468
-0.0212097
-0.0210571
-0.0205994
-0.0202942
-0.0195312
-0.0183105
-0.0170898
-0.0164795
-0.0151062
-0.0141907
-0.0132751
-0.01297
-0.0132751
-0.0137329
-0.014801
-0.0160217
-0.0177002
-0.0189209
-0.0204468
-0.0215149
-0.0222778
-0.0224304
-0.0224304
-0.0219727
-0.0213623
-0.020752
-0.019989
-0.0190735
-0.0184631
-0.0170898
-0.0169373
-0.0170898
-0.0169373
-0.0178528
-0.0183105
-0.0189209
-0.0201416
-0.0212097
-0.0221252
-0.0230408
-0.0234985
-0.0238037
-0.0236511
-0.0236511
-0.0228882
-0.0219727
-0.0213623
-0.0202942
-0.0195312
-0.018158
-0.0172424
-0.017395
-0.0170898
-0.0175476
-0.0184631
-0.0193787
-0.020752
-0.0215149
-0.0227356
-0.0234985
-0.0239563
-0.0234985
-0.0230408
-0.0224304
-0.0216675
-0.020752
-0.0201416
-0.0192261
-0.0180054
-0.0170898
-0.0163269
-0.0161743
-0.0158691
-0.0164795
-0.0169373
-0.0178528
-0.0189209
-0.0195312
-0.0204468
-0.0210571
-0.0205994
-0.0198364
-0.0183105
-0.0166321
-0.0144958
-0.0123596
-0.0106812
-0.00778198
-0.00579834
-0.00366211
-0.00183105
0.0
0.00152588
0.00274658
0.00320435
0.00411987
0.00457764
0.00595093
0.00747681
0.00869751
0.0105286
0.0131226
0.0158691
0.0192261
0.022583
0.0256348
0.0292969
0.0323486
0.0354004
0.0384521
0.0405884
0.0430298
0.0448608
0.0453186
0.0460815
0.0463867
0.0460815
0.0456238
0.045166
0.0447083
0.0440979
0.0439453
0.0439453
0.0447083
0.0453186
0.0460815
0.0469971
0.0486755
0.0500488
0.0523376
0.0546265
0.0561523
0.057373
0.0585938
0.0593567
0.0601196
0.06073
0.0611877
0.0619507
0.0630188
0.0642395
0.0656128
0.0675964
0.0692749
0.070343
0.0717163
0.0724792
0.0724792
0.0721741
0.0712585
0.0694275
0.0660706
0.0622559
0.0575256
0.0523376
0.0462341
0.0396729
0.0331116
0.0262451
0.0196838
0.01297
0.00701904
0.00152588
-0.0038147
-0.00823975
-0.0123596
-0.0163269
-0.0198364
-0.0230408
-0.0257874
-0.0288391
-0.0323486
-0.035553
-0.0389099
-0.0422668
-0.0457764
-0.0492859
-0.0524902
-0.0553894
-0.0579834
-0.0601196
-0.0619507
-0.062561
-0.0634766
-0.0645447
-0.0645447
-0.0645447
-0.0648499
-0.0646973
-0.0640869
-0.063324
-0.0634766
-0.0630188
-0.0634766
-0.0637817
-0.0634766
-0.0640869
-0.0639343
-0.0634766
-0.0630188
-0.0617981
-0.0601196
-0.0584412
-0.0561523
-0.0537109
-0.0514221
-0.0494385
-0.0473022
-0.0450134
-0.0430298
-0.0422668
-0.0411987
-0.0408936
-0.0413513
-0.0421143
-0.0428772
-0.0442505
-0.0453186
-0.0463867
-0.0474548
-0.0482178
-0.0483704
-0.0485229
-0.0480652
-0.0474548
-0.0466919
-0.0456238
-0.0447083
-0.0437927
-0.042572
-0.0416565
-0.0415039
-0.0413513
-0.0421143
-0.043335
-0.0448608
-0.0471497
-0.0495911
-0.0517273
-0.0537109
-0.0553894
-0.0564575
-0.0570679
-0.0569153
-0.0566101
-0.0558472
-0.0537109
-0.0512695
-0.0474548
-0.0424194
-0.0361633
-0.0276184
-0.0180054
-0.00595093
0.00823975
0.0260925
0.0457764
0.0692749
0.0958252
0.125427
0.158081
0.193787
0.232239
0.273285
0.316772
0.362396
0.411072
0.46051
0.510559
0.563202
0.615082
0.667267
0.718384
0.76767
0.81543
0.860138
0.901031
0.937653
0.968781
0.993958
1.01181
1.02097
1.02051
1.01089
0.990906
0.960999
0.921478
0.87265
0.814667
0.748749
0.674896
0.593719
0.507202
0.416412
0.321808
0.226593
0.131378
0.0386047
-0.050354
-0.133972
-0.209808
-0.278015
-0.337067
-0.385895
-0.425415
-0.454559
-0.475311
-0.486755
-0.489807
-0.485535
-0.475006
-0.459137
-0.438995
-0.416565
-0.391235
-0.364685
-0.33844
-0.311432
-0.286255
-0.262604
-0.239716
-0.219574
-0.200958
-0.184021
-0.16983
-0.157318
-0.147552
-0.138855
-0.132904
-0.128021
-0.125122
-0.123901
-0.123596
-0.124207
-0.126038
-0.128021
-0.130157
-0.132294
-0.134583
-0.136261
-0.137482
-0.137939
-0.137634
-0.136719
-0.135651
-0.134583
-0.133209
-0.132294
-0.131683
-0.131531
-0.131073
-0.131378
-0.131836
-0.131683
-0.131836
-0.131531
-0.130768
-0.129852
-0.128021
-0.125427
-0.122833
-0.119781
-0.116272
-0.112457
-0.108948
-0.105743
-0.102692
-0.0997925
-0.0970459
-0.0947571
-0.0924683
-0.0907898
-0.0900269
-0.0894165
-0.0891113
-0.0889587
-0.0894165
-0.0897217
-0.0898743
-0.0897217
-0.0889587
-0.087738
-0.0863647
-0.0842285
-0.0823975
-0.0804138
-0.0779724
-0.0753784
-0.0727844
-0.070343
-0.0680542
-0.0663757
-0.0646973
-0.063324
-0.062561
-0.0621033
-0.0614929
-0.0611877
-0.0608826
-0.0601196
-0.0593567
-0.0579834
-0.0561523
-0.0544739
-0.0526428
-0.0509644
-0.0488281
-0.0474548
-0.0457764
-0.0434875
-0.0422668
-0.0413513
-0.040741
-0.0402832
-0.0402832
-0.0398254
-0.0395203
-0.0390625
-0.0390625
-0.0384521
-0.037384
-0.0360107
-0.0343323
-0.032196
-0.0300598
-0.027771
-0.0256348
-0.0228882
-0.020752
-0.0183105
-0.0163269
-0.0151062
-0.0131226
-0.0128174
-0.012207
-0.0117493
-0.0120544
-0.0115967
-0.0115967
-0.0109863
-0.0102234
-0.0088501
-0.00732422
-0.00610352
-0.00427246
-0.00213623
-0.000152588
0.00183105
0.00411987
0.0062561
0.00793457
0.00991821
0.0111389
0.0120544
0.01297
0.0134277
0.0137329
0.0143433
0.0151062
0.0157166
0.0170898
0.0189209
0.0209045
0.0236511
0.0263977
0.0289917
0.0320435
0.0350952
0.038147
0.0405884
0.0437927
0.045929
0.0479126
0.0500488
0.0517273
0.052948
0.0544739
0.0558472
0.0578308
0.0595093
0.0621033
0.0650024
0.0683594
0.0718689
0.0758362
0.0798035
0.0837708
0.0880432
0.0926208
0.0970459
0.100861
0.104675
0.108185
0.111237
0.114136
0.116882
0.119476
0.12207
0.124664
0.127563
0.130463
0.13443
0.138245
0.142365
0.146484
0.150299
0.154572
0.158691
0.162354
0.166321
0.169983
0.17334
0.176086
0.178528
0.181122
0.182495
0.184326
0.185852
0.187836
0.189514
0.191193
0.193939
0.196381
0.19928
0.201721
0.20462
0.207825
0.210114
0.212708
0.215302
0.217285
0.218353
0.219269
0.219574
0.219421
0.218658
0.217438
0.215912
0.214233
0.212402
0.210419
0.208588
0.205994
0.203705
0.201721
0.198364
0.19516
0.191803
0.187378
0.1828
0.17746
0.171356
0.164642
0.15686
0.148926
0.140076
0.130768
0.121613
0.112305
0.102539
0.093689
0.085144
0.0765991
0.067749
0.0598145
0.0515747
0.0436401
0.0361633
0.0279236
0.0202942
0.012207
0.00427246
-0.0038147
-0.0117493
-0.0204468
-0.0285339
-0.0360107
-0.0439453
-0.0514221
-0.0582886
-0.0639343
-0.0691223
-0.0740051
-0.0770569
-0.0802612
-0.0828552
-0.0848389
-0.0869751
-0.088501
-0.0898743
-0.0914001
-0.0935364
-0.0953674
-0.0970459
-0.0991821
-0.101471
-0.103607
-0.105743
-0.107422
-0.108948
-0.110626
-0.111389
-0.112
-0.112457
-0.112915
-0.112915
-0.112457
-0.112305
-0.111694
-0.110931
-0.110931
-0.111237
-0.111542
-0.112
-0.112457
-0.11322
-0.114441
-0.114899
-0.115051
-0.115356
-0.115204
-0.113983
-0.11261
-0.110779
-0.1091
-0.106506
-0.104828
-0.102539
-0.100403
-0.0987244
-0.0968933
-0.0953674
-0.0944519
-0.0941467
-0.0939941
-0.093689
-0.0938416
-0.0941467
-0.0944519
-0.0942993
-0.0941467
-0.093689
-0.092926
-0.0917053
-0.0906372
-0.0894165
-0.0883484
-0.0869751
-0.0857544
-0.0845337
-0.0836182
-0.083313
-0.0828552
-0.0831604
-0.0834656
-0.0837708
-0.0846863
-0.085144
-0.0856018
-0.0856018
-0.0852966
-0.0848389
-0.0839233
-0.0823975
-0.0813293
-0.0796509
-0.0778198
-0.0759888
-0.0743103
-0.0724792
-0.0708008
-0.0697327
-0.0691223
-0.0686646
-0.0682068
-0.0683594
-0.0682068
-0.0680542
-0.0682068
-0.0682068
-0.0671387
-0.0663757
-0.065155
-0.0630188
-0.0621033
-0.0602722
-0.0582886
-0.0567627
-0.0547791
-0.0531006
-0.0517273
-0.0509644
-0.0508118
-0.0506592
-0.0511169
-0.0521851
-0.0524902
-0.0535583
-0.0546265
-0.0552368
-0.0552368
-0.0549316
-0.0549316
-0.0543213
-0.0535583
-0.0526428
-0.0514221
-0.0505066
-0.0492859
-0.0480652
-0.0469971
-0.0462341
-0.0457764
-0.0450134
-0.0448608
-0.0447083
-0.045166
-0.0448608
-0.0445557
-0.0439453
-0.0437927
-0.042572
-0.0408936
-0.0396729
-0.0382996
-0.0367737
-0.0350952
-0.0337219
-0.0320435
-0.0311279
-0.0297546
-0.0292969
-0.0289917
-0.0291443
-0.0299072
-0.030365
-0.0315857
-0.0315857
-0.0323486
-0.0328064
-0.0320435
-0.0312805
-0.0297546
-0.0286865
-0.0268555
-0.0254822
-0.0238037
-0.0221252
-0.0202942
-0.0192261
-0.0183105
-0.0178528
-0.0175476
-0.0178528
-0.0186157
-0.0193787
-0.0204468
-0.0212097
-0.0224304
-0.0233459
-0.0234985
-0.0238037
-0.0239563
-0.0233459
-0.0230408
-0.022583
-0.0216675
-0.0212097
-0.0202942
-0.0192261
-0.0183105
-0.017395
-0.0167847
-0.0164795
-0.0166321
-0.0170898
-0.0172424
-0.0177002
-0.0183105
-0.018158
-0.0186157
-0.0178528
-0.0166321
-0.0154114
-0.0137329
-0.0128174
-0.0115967
-0.00976562
-0.00869751
-0.00808716
-0.00778198
-0.00762939
-0.00808716
-0.00869751
-0.00991821
-0.0109863
-0.0123596
-0.0137329
-0.0152588
-0.0157166
-0.0158691
-0.0163269
-0.0161743
-0.0157166
-0.0152588
-0.0141907
-0.0132751
-0.0126648
-0.0114441
-0.0100708
-0.00930786
-0.00930786
-0.0088501
-0.00915527
-0.00976562
-0.0105286
-0.0112915
-0.012207
-0.0131226
-0.0140381
-0.0143433
-0.0140381
-0.0135803
-0.0128174
-0.0123596
-0.0114441
-0.0106812
-0.0102234
-0.0088501
-0.00839233
-0.00839233
-0.00808716
-0.00839233
-0.00946045
-0.010376
-0.0117493
-0.0132751
-0.0143433
-0.0160217
-0.0164795
-0.017395
-0.017395
-0.0169373
-0.0161743
-0.0152588
-0.0144958
-0.0137329
-0.0132751
-0.0119019
-0.0112915
-0.0106812
-0.010376
-0.0105286
-0.0108337
-0.0115967
-0.0125122
-0.0131226
-0.0138855
-0.0149536
-0.0154114
-0.0157166
-0.0154114
-0.0143433
-0.0138855
-0.0126648
-0.0119019
-0.010376
-0.00930786
-0.00823975
-0.00732422
-0.00671387
-0.0062561
-0.00610352
-0.00671387
-0.00686646
-0.00778198
-0.0088501
-0.00961304
-0.0100708
-0.0105286
-0.0106812
-0.0108337
-0.0102234
-0.00930786
-0.00869751
-0.00778198
-0.00686646
-0.00595093
-0.0050354
-0.00396729
-0.00411987
-0.0038147
-0.00427246
-0.00534058
-0.0062561
-0.00717163
-0.00823975
-0.00961304
-0.0108337
-0.0114441
-0.012207
-0.012207
-0.0117493
-0.0114441
-0.0100708
-0.00976562
-0.00839233
-0.00717163
-0.00610352
-0.00488281
-0.00411987
-0.00335693
-0.00259399
-0.00289917
-0.00320435
-0.00366211
-0.00427246
-0.00549316
-0.00579834
-0.00686646
-0.00671387
-0.00640869
-0.0062561
-0.00579834
-0.00534058
-0.00442505
-0.00411987
-0.00350952
-0.00259399
-0.00183105
-0.000610352
-0.000457764
-0.000152588
0.000305176
0.000152588
-0.000152588
0.00106812
0.0012207
0.00213623
0.00320435
0.00518799
0.00762939
0.0105286
0.0138855
0.017395
0.0215149
0.025177
0.0296021
0.0331116
0.0375366
0.0405884
0.0431824
0.0457764
0.0480652
0.0497437
0.0515747
0.0524902
0.0534058
0.0540161
0.0550842
0.0558472
0.0567627
0.0588989
0.059967
0.0611877
0.062561
0.0637817
0.0645447
0.065155
0.0656128
0.0657654
0.065155
0.0643921
0.0634766
0.0621033
0.06073
0.0596619
0.0588989
0.0584412
0.0584412
0.0595093
0.0608826
0.0624084
0.0648499
0.0674438
0.0700378
0.0726318
0.0753784
0.0779724
0.0798035
0.0817871
0.0830078
0.0837708
0.0836182
0.0837708
0.0823975
0.0802612
0.0779724
0.0753784
0.0718689
0.0683594
0.0645447
0.0605774
0.0567627
0.0524902
0.0482178
0.0440979
0.0396729
0.0352478
0.0308228
0.0260925
0.0209045
0.0157166
0.0102234
0.00442505
-0.000457764
-0.00579834
-0.0109863
-0.0158691
-0.019989
-0.0233459
-0.0268555
-0.0291443
-0.0312805
-0.032959
-0.0341797
-0.035553
-0.0366211
-0.0372314
-0.0382996
-0.0393677
-0.0405884
-0.0422668
-0.0439453
-0.0457764
-0.0479126
-0.050354
-0.0520325
-0.0535583
-0.0550842
-0.0552368
-0.0550842
-0.0550842
-0.0541687
-0.052948
-0.0515747
-0.0506592
-0.0488281
-0.0469971
-0.045929
-0.0444031
-0.0439453
-0.043335
-0.043335
-0.0434875
-0.0436401
-0.0445557
-0.0445557
-0.045166
-0.0450134
-0.0447083
-0.0437927
-0.0428772
-0.0413513
-0.0398254
-0.038147
-0.0364685
-0.0343323
-0.0325012
-0.0309753
-0.0291443
-0.0280762
-0.0276184
-0.0273132
-0.0276184
-0.0279236
-0.0286865
-0.0289917
-0.0299072
-0.0306702
-0.0311279
-0.0315857
-0.0320435
-0.0326538
-0.0332642
-0.0338745
-0.0344849
-0.0354004
-0.0354004
-0.0358582
-0.0358582
-0.0357056
-0.0357056
-0.03479
-0.0326538
-0.0300598
-0.0260925
-0.0201416
-0.0112915
-0.000152588
0.0140381
0.0314331
0.0517273
0.0761414
0.10376
0.13382
0.166779
0.202789
0.241699
0.282593
0.32547
0.370789
0.417175
0.464935
0.513611
0.562592
0.612946
0.6633
0.714569
0.765533
0.815125
0.863647
0.908813
0.950623
0.987244
1.01807
1.04156
1.05637
1.06155
1.05713
1.04141
1.01532
0.978088
0.931244
0.873566
0.807037
0.731354
0.648193
0.558167
0.463104
0.364227
0.264587
0.164948
0.0675964
-0.0260925
-0.113831
-0.195465
-0.269012
-0.333557
-0.388794
-0.433655
-0.468597
-0.493317
-0.508118
-0.513458
-0.509949
-0.498657
-0.480499
-0.457001
-0.428925
-0.397644
-0.364532
-0.331421
-0.298309
-0.266724
-0.236969
-0.209808
-0.18631
-0.1651
-0.147858
-0.134277
-0.123901
-0.116425
-0.112457
-0.110779
-0.110931
-0.112305
-0.115509
-0.119019
-0.122528
-0.126648
-0.129852
-0.132904
-0.135193
-0.136108
-0.137177
-0.137482
-0.137329
-0.136414
-0.135498
-0.13443
-0.132904
-0.131531
-0.130005
-0.128632
-0.127411
-0.126038
-0.124512
-0.122986
-0.121002
-0.118866
-0.116119
-0.113373
-0.110779
-0.108032
-0.105286
-0.102844
-0.100861
-0.0984192
-0.0965881
-0.0952148
-0.0938416
-0.092926
-0.0921631
-0.0921631
-0.0918579
-0.0918579
-0.0917053
-0.0917053
-0.0914001
-0.090332
-0.0888062
-0.0872803
-0.085144
-0.0831604
-0.0808716
-0.0782776
-0.0762939
-0.0732422
-0.0712585
-0.0691223
-0.0675964
-0.0665283
-0.0653076
-0.0650024
-0.0642395
-0.0642395
-0.0636292
-0.0631714
-0.062561
-0.0617981
-0.0604248
-0.0588989
-0.0570679
-0.0556946
-0.0537109
-0.0518799
-0.0498962
-0.0480652
-0.0466919
-0.045166
-0.0442505
-0.0434875
-0.0434875
-0.0436401
-0.0437927
-0.0444031
-0.0445557
-0.0447083
-0.0445557
-0.0444031
-0.0430298
-0.0418091
-0.0393677
-0.0379944
-0.0357056
-0.0332642
-0.0309753
-0.0285339
-0.0260925
-0.0241089
-0.0221252
-0.0204468
-0.0193787
-0.0184631
-0.0178528
-0.0172424
-0.0167847
-0.0161743
-0.0151062
-0.0141907
-0.0128174
-0.0109863
-0.00961304
-0.00793457
-0.0062561
-0.00457764
-0.00289917
-0.00167847
-0.000305176
0.000610352
0.00137329
0.00152588
0.00183105
0.00183105
0.00183105
0.00167847
0.00152588
0.00183105
0.00244141
0.00396729
0.00595093
0.00823975
0.0106812
0.0135803
0.0166321
0.0195312
0.0228882
0.0263977
0.0300598
0.0326538
0.035553
0.0378418
0.0395203
0.0410461
0.0422668
0.0434875
0.045166
0.0468445
0.0485229
0.0508118
0.0537109
0.0566101
0.0596619
0.0631714
0.0668335
0.070343
0.0743103
0.0778198
0.0814819
0.085144
0.0880432
0.0907898
0.0939941
0.0968933
0.0997925
0.102844
0.105438
0.108337
0.111237
0.114899
0.118866
0.122833
0.127106
0.131226
0.136261
0.140381
0.145264
0.149536
0.153809
0.157928
0.16098
0.164337
0.167236
0.169525
0.171967
0.174561
0.176697
0.17868
0.181122
0.184021
0.187531
0.190735
0.194244
0.197906
0.201263
0.204926
0.208435
0.211182
0.214386
0.216675
0.218353
0.219116
0.220184
0.220184
0.220032
0.220032
0.219116
0.218964
0.218201
0.217896
0.217896
0.217896
0.218048
0.21759
0.217133
0.216522
0.215912
0.214844
0.212708
0.210419
0.207214
0.203247
0.198517
0.193176
0.187225
0.180664
0.174103
0.166931
0.160065
0.152893
0.146179
0.138855
0.131531
0.124054
0.116577
0.109253
0.101776
0.0939941
0.0856018
0.0772095
0.0680542
0.0592041
0.0492859
0.0398254
0.030365
0.0205994
0.0112915
0.00259399
-0.00656128
-0.0143433
-0.0216675
-0.0283813
-0.0349426
-0.0410461
-0.0466919
-0.0514221
-0.0564575
-0.0604248
-0.0648499
-0.0691223
-0.0738525
-0.0782776
-0.0819397
-0.0860596
-0.0904846
-0.0947571
-0.098114
-0.101471
-0.104523
-0.106354
-0.108185
-0.108948
-0.109711
-0.109863
-0.110016
-0.109863
-0.109406
-0.109558
-0.108948
-0.109253
-0.109863
-0.110474
-0.111237
-0.11261
-0.113983
-0.115509
-0.116577
-0.11795
-0.118561
-0.119019
-0.118866
-0.118408
-0.118256
-0.116882
-0.115814
-0.114899
-0.113831
-0.112305
-0.111542
-0.110321
-0.109253
-0.109558
-0.109253
-0.109406
-0.109406
-0.109863
-0.109711
-0.109711
-0.109711
-0.108643
-0.107422
-0.106354
-0.10498
-0.103149
-0.101929
-0.0999451
-0.0979614
-0.0964355
-0.0949097
-0.0935364
-0.0927734
-0.0926208
-0.0924683
-0.0926208
-0.0927734
-0.0935364
-0.0941467
-0.0941467
-0.0942993
-0.0941467
-0.0930786
-0.0921631
-0.0907898
-0.0892639
-0.0869751
-0.0849915
-0.0830078
-0.0808716
-0.0790405
-0.0772095
-0.0764465
-0.0750732
-0.0744629
-0.0741577
-0.0735474
-0.0737
-0.072937
-0.0723267
-0.0718689
-0.0706482
-0.0692749
-0.0680542
-0.0663757
-0.0650024
-0.0636292
-0.0619507
-0.0608826
-0.0598145
-0.0593567
-0.0585938
-0.0588989
-0.0592041
-0.059967
-0.0610352
-0.0619507
-0.0631714
-0.0643921
-0.0650024
-0.0657654
-0.0656128
-0.0648499
-0.0636292
-0.0627136
-0.0614929
-0.0596619
-0.058136
-0.0561523
-0.0544739
-0.0524902
-0.0511169
-0.0497437
-0.0489807
-0.0483704
-0.0479126
-0.0479126
-0.04776
-0.0476074
-0.0479126
-0.0476074
-0.0468445
-0.0457764
-0.0447083
-0.043335
-0.0415039
-0.0401306
-0.0386047
-0.0370789
-0.0354004
-0.0340271
-0.032959
-0.0325012
-0.0320435
-0.0318909
-0.0326538
-0.0331116
-0.0340271
-0.03479
-0.0352478
-0.0352478
-0.0352478
-0.0344849
-0.0335693
-0.0323486
-0.0312805
-0.0300598
-0.0289917
-0.0276184
-0.0262451
-0.025177
-0.0241089
-0.0236511
-0.0228882
-0.0230408
-0.0236511
-0.0242615
-0.0250244
-0.0256348
-0.0260925
-0.0263977
-0.0265503
-0.0254822
-0.0247192
-0.0238037
-0.0222778
-0.0210571
-0.019989
-0.0183105
-0.0169373
-0.0157166
-0.0149536
-0.0144958
-0.0143433
-0.0146484
-0.0154114
-0.0158691
-0.0169373
-0.0178528
-0.0184631
-0.0189209
-0.0192261
-0.0192261
-0.0186157
-0.0184631
-0.0175476
-0.0166321
-0.0158691
-0.0151062
-0.0144958
-0.0138855
-0.0141907
-0.0144958
-0.0152588
-0.0160217
-0.0169373
-0.0180054
-0.0190735
-0.0201416
-0.0210571
-0.0218201
-0.0221252
-0.0219727
-0.0215149
-0.0205994
-0.0196838
-0.0187683
-0.0175476
-0.0164795
-0.0149536
-0.0138855
-0.0134277
-0.0132751
-0.0131226
-0.0135803
-0.0144958
-0.0154114
-0.0166321
-0.0178528
-0.0190735
-0.0201416
-0.0204468
-0.0205994
-0.0204468
-0.0202942
-0.0201416
-0.0195312
-0.0190735
-0.0186157
-0.0183105
-0.0180054
-0.0177002
-0.0178528
-0.0180054
-0.0189209
-0.0198364
-0.0212097
-0.0222778
-0.0236511
-0.0250244
-0.025177
-0.0254822
-0.0250244
-0.0244141
-0.0231934
-0.0224304
-0.0215149
-0.0202942
-0.0192261
-0.018158
-0.017395
-0.0167847
-0.0163269
-0.0170898
-0.0175476
-0.0184631
-0.0190735
-0.0202942
-0.020752
-0.0213623
-0.0215149
-0.0215149
-0.0210571
-0.0205994
-0.0192261
-0.0186157
-0.0178528
-0.017395
-0.0169373
-0.0160217
-0.0158691
-0.015564
-0.0160217
-0.0166321
-0.0177002
-0.0187683
-0.0202942
-0.0216675
-0.0230408
-0.0239563
-0.0247192
-0.0248718
-0.0250244
-0.0239563
-0.0231934
-0.0222778
-0.0205994
-0.019989
-0.0184631
-0.0170898
-0.0160217
-0.0146484
-0.0143433
-0.0141907
-0.0141907
-0.014801
-0.0154114
-0.0163269
-0.0172424
-0.0186157
-0.0189209
-0.0192261
-0.0190735
-0.0184631
-0.0180054
-0.0175476
-0.0161743
-0.0154114
-0.0144958
-0.0135803
-0.0126648
-0.0126648
-0.012207
-0.0126648
-0.01297
-0.0137329
-0.0144958
-0.0157166
-0.0167847
-0.0178528
-0.0183105
-0.0184631
-0.0186157
-0.0180054
-0.0175476
-0.0166321
-0.0158691
-0.0154114
-0.0138855
-0.0132751
-0.0126648
-0.0125122
-0.0126648
-0.0128174
-0.0137329
-0.0144958
-0.0154114
-0.0161743
-0.0175476
-0.0180054
-0.0184631
-0.0183105
-0.0178528
-0.0172424
-0.0164795
-0.0149536
-0.0137329
-0.0123596
-0.0108337
-0.00961304
-0.00823975
-0.00823975
-0.00762939
-0.00793457
-0.0088501
-0.00930786
-0.0108337
-0.012207
-0.0132751
-0.0143433
-0.0151062
-0.015564
-0.0160217
-0.0161743
-0.015564
-0.0154114
-0.014801
-0.0143433
-0.0140381
-0.0134277
-0.0131226
-0.0126648
-0.0128174
-0.0128174
-0.0134277
-0.0141907
-0.0146484
-0.0154114
-0.0158691
-0.0160217
-0.0158691
-0.0152588
-0.0140381
-0.0125122
-0.0108337
-0.0088501
-0.00701904
-0.00427246
-0.00228882
0.000152588
0.00213623
0.00442505
0.00610352
0.00732422
0.00854492
0.00961304
0.0105286
0.0114441
0.0131226
0.0151062
0.0172424
0.0198364
0.0227356
0.0263977
0.0294495
0.032959
0.0366211
0.0398254
0.0422668
0.0453186
0.0474548
0.0497437
0.0511169
0.0520325
0.0521851
0.0518799
0.0511169
0.0498962
0.0492859
0.0480652
0.0473022
0.0463867
0.0463867
0.0460815
0.0466919
0.0469971
0.0480652
0.0492859
0.0509644
0.0527954
0.0547791
0.0561523
0.0582886
0.0595093
0.0613403
0.0621033
0.063324
0.0640869
0.0656128
0.0663757
0.0675964
0.068512
0.0695801
0.071106
0.0720215
0.0726318
0.0733948
0.0733948
0.0727844
0.0715637
0.0697327
0.0674438
0.0639343
0.0598145
0.0547791
0.0494385
0.0431824
0.0375366
0.0315857
0.0256348
0.0195312
0.0144958
0.00961304
0.00534058
0.0012207
-0.00244141
-0.0062561
-0.00915527
-0.01297
-0.0158691
-0.0189209
-0.0222778
-0.0260925
-0.0297546
-0.0340271
-0.0379944
-0.0422668
-0.045929
-0.0497437
-0.0526428
-0.0552368
-0.0575256
-0.0587463
-0.0601196
-0.06073
-0.0610352
-0.0614929
-0.0610352
-0.0610352
-0.059967
-0.0595093
-0.0592041
-0.0584412
-0.0584412
-0.0587463
-0.0585938
-0.0588989
-0.0595093
-0.059967
-0.0601196
-0.0601196
-0.0593567
-0.0587463
-0.057373
-0.0563049
-0.0547791
-0.0538635
-0.0523376
-0.0506592
-0.0495911
-0.0485229
-0.0480652
-0.04776
-0.0479126
-0.0480652
-0.0485229
-0.0492859
-0.0502014
-0.0508118
-0.0512695
-0.0511169
-0.0511169
-0.050354
-0.0494385
-0.0480652
-0.0473022
-0.0454712
-0.0445557
-0.0428772
-0.0418091
-0.0408936
-0.0404358
-0.0404358
-0.0410461
-0.0422668
-0.0444031
-0.0465393
-0.0489807
-0.0515747
-0.0540161
-0.0556946
-0.0569153
-0.057373
-0.0567627
-0.0556946
-0.0534058
-0.050354
-0.0465393
-0.0410461
-0.0341797
-0.025177
-0.0140381
-0.00137329
0.0143433
0.0328064
0.0538635
0.078125
0.105438
0.135498
0.169067
0.205231
0.244904
0.287323
0.332489
0.379791
0.429077
0.479736
0.531616
0.584259
0.638123
0.691528
0.744781
0.796661
0.8461
0.892181
0.934601
0.971375
1.00296
1.02661
1.04263
1.04904
1.04599
1.03256
1.00922
0.975189
0.931244
0.877533
0.814667
0.742188
0.661774
0.573425
0.479126
0.380707
0.279083
0.177155
0.0767517
-0.0209045
-0.113525
-0.199432
-0.277405
-0.346375
-0.405273
-0.452728
-0.48996
-0.516205
-0.531616
-0.536499
-0.532684
-0.520935
-0.501404
-0.47699
-0.447998
-0.416565
-0.383148
-0.350189
-0.317078
-0.285797
-0.256805
-0.230865
-0.207367
-0.18692
-0.169373
-0.154572
-0.142822
-0.133667
-0.127411
-0.123291
-0.121155
-0.120544
-0.121002
-0.122833
-0.12558
-0.128326
-0.132141
-0.135498
-0.138855
-0.142365
-0.145111
-0.1474
-0.149231
-0.149689
-0.149231
-0.148468
-0.146484
-0.143433
-0.140839
-0.137329
-0.134888
-0.131226
-0.128174
-0.124969
-0.122375
-0.120697
-0.118408
-0.117493
-0.116577
-0.116577
-0.116119
-0.115967
-0.115814
-0.115051
-0.113983
-0.11322
-0.111542
-0.110016
-0.108185
-0.106354
-0.104523
-0.102234
-0.100403
-0.0982666
-0.0965881
-0.0949097
-0.0938416
-0.0927734
-0.0921631
-0.0917053
-0.0909424
-0.0907898
-0.0900269
-0.0889587
-0.087738
-0.0860596
-0.0842285
-0.0814819
-0.0796509
-0.0772095
-0.0750732
-0.0724792
-0.0706482
-0.0686646
-0.0674438
-0.0663757
-0.065918
-0.0654602
-0.0660706
-0.065918
-0.0662231
-0.0665283
-0.0660706
-0.065918
-0.0656128
-0.0646973
-0.0628662
-0.0614929
-0.0593567
-0.058136
-0.0561523
-0.0544739
-0.0523376
-0.050354
-0.0494385
-0.0483704
-0.0476074
-0.0471497
-0.0468445
-0.0469971
-0.0468445
-0.0468445
-0.0460815
-0.0457764
-0.0444031
-0.0428772
-0.0410461
-0.0387573
-0.0361633
-0.0340271
-0.0315857
-0.0291443
-0.0268555
-0.0245667
-0.0228882
-0.0212097
-0.0198364
-0.0192261
-0.0187683
-0.0183105
-0.0178528
-0.0175476
-0.0169373
-0.0163269
-0.0152588
-0.0141907
-0.0120544
-0.0100708
-0.00793457
-0.00564575
-0.00335693
-0.000915527
0.000762939
0.00274658
0.00427246
0.00564575
0.00671387
0.00793457
0.0088501
0.00961304
0.0105286
0.0117493
0.0128174
0.0144958
0.0166321
0.0193787
0.0222778
0.025177
0.0286865
0.0326538
0.0357056
0.0389099
0.0422668
0.0460815
0.0488281
0.0511169
0.0535583
0.0556946
0.0578308
0.0595093
0.0611877
0.063324
0.0650024
0.067749
0.0708008
0.0741577
0.0776672
0.0816345
0.0857544
0.0906372
0.0952148
0.098877
0.103302
0.107727
0.111084
0.114746
0.117798
0.120697
0.122986
0.125427
0.128021
0.130005
0.132751
0.135345
0.138855
0.142822
0.14679
0.150299
0.154572
0.158539
0.162811
0.166779
0.171051
0.174866
0.179138
0.181885
0.184937
0.187073
0.189362
0.191345
0.193329
0.194855
0.196381
0.198364
0.200958
0.203552
0.206146
0.209351
0.212097
0.214844
0.21759
0.219879
0.222321
0.224609
0.225983
0.226593
0.227356
0.226593
0.226288
0.225525
0.224304
0.222321
0.220947
0.218964
0.217285
0.215607
0.213165
0.210724
0.20874
0.205231
0.201874
0.197906
0.193024
0.188141
0.181885
0.174866
0.167084
0.158234
0.149384
0.139618
0.130005
0.119476
0.109711
0.0997925
0.0900269
0.0808716
0.0723267
0.0634766
0.0550842
0.0465393
0.0393677
0.0308228
0.0230408
0.0149536
0.00747681
-0.000762939
-0.0088501
-0.0166321
-0.025177
-0.0326538
-0.039978
-0.0471497
-0.0537109
-0.059967
-0.0653076
-0.0694275
-0.0737
-0.0778198
-0.0808716
-0.0834656
-0.0860596
-0.0878906
-0.0901794
-0.0921631
-0.0942993
-0.0967407
-0.0994873
-0.101929
-0.105286
-0.107727
-0.110779
-0.113068
-0.115204
-0.11673
-0.117645
-0.118408
-0.118866
-0.118256
-0.118256
-0.117798
-0.117188
-0.116882
-0.116425
-0.115967
-0.116119
-0.116272
-0.116882
-0.117645
-0.118561
-0.119476
-0.120697
-0.122223
-0.123138
-0.123901
-0.123596
-0.123749
-0.122681
-0.12146
-0.120087
-0.118408
-0.116577
-0.114441
-0.11261
-0.110626
-0.1091
-0.108185
-0.107574
-0.106506
-0.106354
-0.105896
-0.105743
-0.105591
-0.105286
-0.10437
-0.103302
-0.102386
-0.100708
-0.0993347
-0.0975037
-0.0961304
-0.0946045
-0.0932312
-0.0918579
-0.0906372
-0.0901794
-0.0900269
-0.0897217
-0.0900269
-0.090332
-0.0907898
-0.0912476
-0.0912476
-0.0909424
-0.0909424
-0.0900269
-0.0892639
-0.0874329
-0.0862122
-0.085144
-0.0836182
-0.0819397
-0.0804138
-0.0785828
-0.0776672
-0.0767517
-0.0756836
-0.075531
-0.0753784
-0.075531
-0.0759888
-0.0761414
-0.0765991
-0.0764465
-0.0758362
-0.0750732
-0.0738525
-0.0726318
-0.0708008
-0.0692749
-0.0675964
-0.0657654
-0.0642395
-0.0630188
-0.0614929
-0.0601196
-0.0596619
-0.0596619
-0.0596619
-0.0602722
-0.0608826
-0.0611877
-0.0617981
-0.0621033
-0.0619507
-0.0613403
-0.0604248
-0.0595093
-0.058136
-0.0567627
-0.0549316
-0.0531006
-0.0520325
-0.0505066
-0.0492859
-0.0483704
-0.0480652
-0.0479126
-0.0485229
-0.0492859
-0.0500488
-0.0508118
-0.0515747
-0.0521851
-0.0524902
-0.0521851
-0.0512695
-0.0508118
-0.0495911
-0.0485229
-0.0469971
-0.0453186
-0.0437927
-0.0421143
-0.0408936
-0.0393677
-0.0386047
-0.038147
-0.0378418
-0.038147
-0.0384521
-0.0386047
-0.0387573
-0.0387573
-0.0392151
-0.0384521
-0.0379944
-0.0367737
-0.0357056
-0.0349426
-0.0338745
-0.0332642
-0.0318909
-0.0312805
-0.030365
-0.030365
-0.0302124
-0.0306702
-0.0311279
-0.032196
-0.0334167
-0.0341797
-0.0352478
-0.0357056
-0.0358582
-0.0357056
-0.0349426
-0.0337219
-0.0325012
-0.0309753
-0.0294495
-0.0276184
-0.0262451
-0.0248718
-0.0234985
-0.022583
-0.0222778
-0.0218201
-0.0222778
-0.0233459
-0.0241089
-0.0250244
-0.0262451
-0.0270081
-0.0274658
-0.027771
-0.0273132
-0.0268555
-0.0265503
-0.0259399
-0.0253296
-0.0247192
-0.0241089
-0.0231934
-0.0224304
-0.0227356
-0.0231934
-0.0234985
-0.0239563
-0.0250244
-0.0256348
-0.0265503
-0.0271606
-0.0274658
-0.0276184
-0.0276184
-0.0265503
-0.0256348
-0.0245667
-0.0236511
-0.0224304
-0.0212097
-0.0202942
-0.0193787
-0.0190735
-0.0183105
-0.0183105
-0.0190735
-0.019989
-0.020752
-0.0222778
-0.0234985
-0.0248718
-0.0257874
-0.0263977
-0.0263977
-0.0262451
-0.0253296
-0.0250244
-0.0238037
-0.0224304
-0.0224304
-0.0210571
-0.019989
-0.0190735
-0.0186157
-0.0187683
-0.0189209
-0.0189209
-0.0195312
-0.0204468
-0.0209045
-0.0222778
-0.0227356
-0.0233459
-0.0231934
-0.0231934
-0.0227356
-0.0218201
-0.0212097
-0.0205994
-0.0196838
-0.0190735
-0.0183105
-0.018158
-0.018158
-0.0184631
-0.0190735
-0.019989
-0.0212097
-0.022583
-0.0242615
-0.0257874
-0.0268555
-0.0276184
-0.0282288
-0.0283813
-0.0280762
-0.0276184
-0.0271606
-0.0262451
-0.0256348
-0.0253296
-0.0244141
-0.0242615
-0.0242615
-0.0250244
-0.0254822
-0.0265503
-0.0276184
-0.0285339
-0.0299072
-0.0311279
-0.0317383
-0.032196
-0.032196
-0.0317383
-0.0314331
-0.0300598
-0.0291443
-0.0283813
-0.0270081
-0.0262451
-0.0250244
-0.0242615
-0.0231934
-0.0231934
-0.0230408
-0.0231934
-0.0236511
-0.0239563
-0.0245667
-0.0248718
-0.0250244
-0.0254822
-0.0250244
-0.0238037
-0.0230408
-0.0221252
-0.0209045
-0.0195312
-0.0189209
-0.0177002
-0.0167847
-0.0161743
-0.0161743
-0.0166321
-0.017395
-0.0186157
-0.0205994
-0.0222778
-0.0236511
-0.0250244
-0.0257874
-0.0265503
-0.0267029
-0.0265503
-0.0256348
-0.0247192
-0.0238037
-0.0224304
-0.0212097
-0.0195312
-0.0183105
-0.0170898
-0.0161743
-0.0157166
-0.0154114
-0.0157166
-0.0161743
-0.0166321
-0.0175476
-0.0186157
-0.0195312
-0.0201416
-0.0202942
-0.0201416
-0.0198364
-0.0187683
-0.0187683
-0.0178528
-0.0170898
-0.0161743
-0.0152588
-0.0151062
-0.0149536
-0.0151062
-0.0160217
-0.0166321
-0.0177002
-0.0189209
-0.0198364
-0.0212097
-0.0221252
-0.022583
-0.0230408
-0.022583
-0.0224304
-0.0218201
-0.0210571
-0.0205994
-0.0198364
-0.0187683
-0.0180054
-0.0175476
-0.017395
-0.0172424
-0.0178528
-0.0183105
-0.0189209
-0.0201416
-0.0209045
-0.0216675
-0.0221252
-0.0219727
-0.0219727
-0.0209045
-0.0202942
-0.0186157
-0.0177002
-0.0157166
-0.0143433
-0.0132751
-0.0119019
-0.0111389
-0.0106812
-0.0112915
-0.0115967
-0.0126648
-0.0135803
-0.0151062
-0.0160217
-0.0172424
-0.0175476
-0.0178528
-0.0172424
-0.0166321
-0.015564
-0.0146484
-0.01297
-0.0114441
-0.00946045
-0.00732422
-0.00549316
-0.00320435
-0.0012207
0.000610352
0.00183105
0.00335693
0.00427246
0.00579834
0.00747681
0.00930786
0.0112915
0.0134277
0.0161743
0.0192261
0.0224304
0.0254822
0.0286865
0.0317383
0.0346375
0.0376892
0.0395203
0.0410461
0.0427246
0.043335
0.0437927
0.043335
0.0427246
0.0419617
0.0404358
0.0396729
0.0387573
0.0378418
0.0369263
0.037384
0.0375366
0.0379944
0.0393677
0.0401306
0.0418091
0.0440979
0.0462341
0.0485229
0.0506592
0.0527954
0.0547791
0.0561523
0.0570679
0.0576782
0.0584412
0.0587463
0.0590515
0.0593567
0.0596619
0.059967
0.0604248
0.059967
0.0595093
0.0584412
0.0572205
0.0547791
0.0523376
0.0491333
0.0444031
0.0396729
0.0349426
0.0288391
0.0227356
0.0166321
0.0106812
0.00488281
-0.000305176
-0.00534058
-0.00946045
-0.0131226
-0.0163269
-0.0190735
-0.0216675
-0.0238037
-0.0262451
-0.0282288
-0.0302124
-0.0323486
-0.0352478
-0.0378418
-0.0410461
-0.0448608
-0.0485229
-0.0527954
-0.0567627
-0.0602722
-0.0639343
-0.0669861
-0.0697327
-0.0717163
-0.0732422
-0.0744629
-0.0753784
-0.0758362
-0.0761414
-0.0758362
-0.075531
-0.0756836
-0.0749207
-0.0747681
-0.0746155
-0.0740051
-0.0740051
-0.0733948
-0.0727844
-0.0726318
-0.0720215
-0.0712585
-0.0701904
-0.0686646
-0.0671387
-0.0653076
-0.0636292
-0.0624084
-0.0605774
-0.0593567
-0.0576782
-0.0570679
-0.0566101
-0.0559998
-0.0567627
-0.0569153
-0.0575256
-0.0576782
-0.0588989
-0.0590515
-0.0590515
-0.0590515
-0.058136
-0.0572205
-0.0553894
-0.0543213
-0.0523376
-0.0512695
-0.0500488
-0.0489807
-0.0486755
-0.0489807
-0.0500488
-0.0521851
-0.0547791
-0.0576782
-0.0611877
-0.0646973
-0.0680542
-0.0712585
-0.0735474
-0.0749207
-0.0752258
-0.0744629
-0.0721741
-0.0683594
-0.0628662
-0.0552368
-0.0448608
-0.032196
-0.0169373
0.00152588
0.0228882
0.0465393
0.0740051
0.102997
0.134735
0.169373
0.206909
0.246735
0.289307
0.334473
0.381775
0.430756
0.481567
0.533295
0.585175
0.63797
0.690613
0.74173
0.791779
0.83786
0.881195
0.9198
0.952148
0.978088
0.996246
1.00525
1.00479
0.994415
0.973816
0.943451
0.903168
0.854492
0.796509
0.730591
0.656281
0.575562
0.489502
0.399017
0.305176
0.209351
0.114288
0.0212097
-0.0688171
-0.153351
-0.231171
-0.301514
-0.362854
-0.414124
-0.455627
-0.487366
-0.508423
-0.519562
-0.522308
-0.517273
-0.504303
-0.48584
-0.462799
-0.435791
-0.40741
-0.376892
-0.34729
-0.317993
-0.290527
-0.265045
-0.242004
-0.221558
-0.20401
-0.188599
-0.175934
-0.165405
-0.156555
-0.150299
-0.144958
-0.141449
-0.138702
-0.137787
-0.137329
-0.137939
-0.138855
-0.140839
-0.142822
-0.145111
-0.147858
-0.150299
-0.153351
-0.155792
-0.157471
-0.159454
-0.160065
-0.160217
-0.159454
-0.157928
-0.155945
-0.153961
-0.150604
-0.147095
-0.14389
-0.140076
-0.136566
-0.133057
-0.130463
-0.127869
-0.12558
-0.123749
-0.122833
-0.12146
-0.120239
-0.119324
-0.118713
-0.11795
-0.116425
-0.115204
-0.113373
-0.112
-0.110321
-0.108643
-0.106506
-0.105438
-0.103455
-0.101929
-0.100555
-0.0993347
-0.098877
-0.0982666
-0.0978088
-0.0975037
-0.0968933
-0.0961304
-0.0961304
-0.0950623
-0.093689
-0.0923157
-0.0907898
-0.0891113
-0.0871277
-0.0849915
-0.0831604
-0.0808716
-0.0784302
-0.0770569
-0.0756836
-0.0744629
-0.0740051
-0.0730896
-0.0730896
-0.0727844
-0.0726318
-0.0723267
-0.0721741
-0.0704956
-0.0700378
-0.0682068
-0.0657654
-0.0639343
-0.0621033
-0.0602722
-0.0584412
-0.0564575
-0.0549316
-0.0534058
-0.0524902
-0.0518799
-0.0512695
-0.0509644
-0.0512695
-0.0515747
-0.0514221
-0.0512695
-0.0508118
-0.0497437
-0.0485229
-0.0466919
-0.0445557
-0.042572
-0.0401306
-0.0379944
-0.0354004
-0.0332642
-0.0308228
-0.0292969
-0.0276184
-0.0270081
-0.0262451
-0.0262451
-0.0259399
-0.0263977
-0.0260925
-0.0259399
-0.0253296
-0.0250244
-0.0239563
-0.0222778
-0.0204468
-0.0184631
-0.0161743
-0.0138855
-0.0109863
-0.00869751
-0.00640869
-0.00396729
-0.00213623
-0.000152588
0.00152588
0.00259399
0.00366211
0.00518799
0.00579834
0.00671387
0.00793457
0.00961304
0.0115967
0.0138855
0.0166321
0.0192261
0.0221252
0.0248718
0.0276184
0.0302124
0.0328064
0.035553
0.0378418
0.0393677
0.0411987
0.042572
0.0440979
0.0453186
0.0469971
0.0485229
0.0509644
0.052948
0.0561523
0.0590515
0.0631714
0.0668335
0.0708008
0.0750732
0.0793457
0.083313
0.0874329
0.0915527
0.0949097
0.098114
0.101013
0.103455
0.106201
0.10849
0.111389
0.114441
0.117645
0.121307
0.125427
0.1297
0.133972
0.138855
0.14328
0.148315
0.153351
0.158081
0.162659
0.166779
0.170746
0.17395
0.176239
0.17868
0.180206
0.18158
0.183258
0.184937
0.186157
0.187683
0.189362
0.19104
0.192566
0.193939
0.195618
0.197144
0.198822
0.199738
0.201569
0.202332
0.202484
0.202789
0.202026
0.201263
0.200195
0.198212
0.196381
0.194244
0.191803
0.189667
0.187531
0.185242
0.182953
0.180664
0.177155
0.17395
0.169525
0.16449
0.159302
0.153351
0.146179
0.138092
0.1297
0.119781
0.109863
0.0991821
0.088501
0.0773621
0.0669861
0.0563049
0.0463867
0.0370789
0.0279236
0.0190735
0.0105286
0.00244141
-0.00488281
-0.0125122
-0.0198364
-0.0271606
-0.0343323
-0.0415039
-0.0489807
-0.0556946
-0.0627136
-0.0691223
-0.0752258
-0.0810242
-0.0857544
-0.0901794
-0.0941467
-0.0971985
-0.100555
-0.103149
-0.105438
-0.107422
-0.109253
-0.111084
-0.11261
-0.114594
-0.116272
-0.118256
-0.119934
-0.122375
-0.125275
-0.127258
-0.129242
-0.131378
-0.133057
-0.133362
-0.13382
-0.134125
-0.133514
-0.132751
-0.132446
-0.131836
-0.131073
-0.130005
-0.128937
-0.128479
-0.127869
-0.127563
-0.127716
-0.128174
-0.128784
-0.129395
-0.130157
-0.131073
-0.131683
-0.131378
-0.130768
-0.1297
-0.128632
-0.127106
-0.12558
-0.123749
-0.121918
-0.120087
-0.117798
-0.116425
-0.115356
-0.114441
-0.114288
-0.114288
-0.113983
-0.114136
-0.114288
-0.114594
-0.113983
-0.113373
-0.112762
-0.111084
-0.109406
-0.106964
-0.10498
-0.102234
-0.0987244
-0.0959778
-0.0923157
-0.0897217
-0.0872803
-0.0857544
-0.0848389
-0.0854492
-0.0862122
-0.0880432
-0.0904846
-0.0927734
-0.0956726
-0.0979614
-0.100403
-0.101776
-0.103302
-0.104218
-0.104675
-0.104523
-0.104218
-0.103302
-0.102386
-0.101013
-0.0996399
-0.0984192
-0.0968933
-0.0959778
-0.0950623
-0.0938416
-0.092926
-0.0917053
-0.0907898
-0.0889587
-0.0874329
-0.0854492
-0.0837708
-0.0819397
-0.0801086
-0.0785828
-0.0769043
-0.0761414
-0.0749207
-0.0746155
-0.0743103
-0.0743103
-0.0749207
-0.0752258
-0.0762939
-0.0776672
-0.0787354
-0.0796509
-0.0802612
-0.0801086
-0.0793457
-0.0782776
-0.0765991
-0.0747681
-0.0726318
-0.0706482
-0.0679016
-0.0654602
-0.063324
-0.0610352
-0.0593567
-0.057373
-0.0567627
-0.0559998
-0.0553894
-0.0552368
-0.0547791
-0.0549316
-0.0549316
-0.0543213
-0.0527954
-0.0517273
-0.0500488
-0.0488281
-0.04776
-0.0460815
-0.045166
-0.0440979
-0.0430298
-0.0428772
-0.042572
-0.0427246
-0.0434875
-0.0437927
-0.0450134
-0.045929
-0.0462341
-0.0473022
-0.0474548
-0.0471497
-0.0463867
-0.0456238
-0.0444031
-0.042572
-0.0411987
-0.0395203
-0.0382996
-0.0361633
-0.0352478
-0.0338745
-0.0334167
-0.0334167
-0.0332642
-0.0338745
-0.03479
-0.0358582
-0.0367737
-0.037384
-0.038147
-0.0387573
-0.0384521
-0.0382996
-0.0372314
-0.0361633
-0.0350952
-0.0340271
-0.0331116
-0.0320435
-0.0314331
-0.0306702
-0.0300598
-0.0300598
-0.0305176
-0.0311279
-0.0317383
-0.0328064
-0.0332642
-0.0340271
-0.0346375
-0.0354004
-0.0354004
-0.0352478
-0.0346375
-0.0338745
-0.0331116
-0.0323486
-0.0305176
-0.0296021
-0.0286865
-0.027771
-0.0273132
-0.0268555
-0.0268555
-0.0273132
-0.0276184
-0.0283813
-0.0289917
-0.0292969
-0.0297546
-0.0291443
-0.0289917
-0.0283813
-0.0271606
-0.0263977
-0.0253296
-0.0245667
-0.0234985
-0.022583
-0.0219727
-0.0216675
-0.0213623
-0.0218201
-0.0228882
-0.0236511
-0.025177
-0.0268555
-0.0282288
-0.0294495
-0.030365
-0.0306702
-0.0308228
-0.0302124
-0.0296021
-0.0288391
-0.027771
-0.0268555
-0.0259399
-0.0247192
-0.0242615
-0.0239563
-0.0241089
-0.0245667
-0.0254822
-0.0260925
-0.0274658
-0.0289917
-0.0297546
-0.0305176
-0.0315857
-0.032196
-0.0318909
-0.0318909
-0.0314331
-0.0302124
-0.0292969
-0.0282288
-0.0268555
-0.0254822
-0.0247192
-0.0236511
-0.0236511
-0.0230408
-0.0234985
-0.0239563
-0.0245667
-0.0253296
-0.0260925
-0.0270081
-0.0273132
-0.0271606
-0.0268555
-0.0259399
-0.0247192
-0.0236511
-0.0227356
-0.0216675
-0.0209045
-0.0195312
-0.0190735
-0.0186157
-0.0190735
-0.0195312
-0.0202942
-0.0210571
-0.0219727
-0.0233459
-0.0244141
-0.0250244
-0.0254822
-0.025177
-0.0242615
-0.0233459
-0.0216675
-0.0198364
-0.0184631
-0.0172424
-0.0158691
-0.014801
-0.0137329
-0.0137329
-0.0141907
-0.0144958
-0.0160217
-0.0175476
-0.0190735
-0.0215149
-0.0236511
-0.0253296
-0.0274658
-0.0282288
-0.0292969
-0.0297546
-0.0297546
-0.0291443
-0.0283813
-0.0268555
-0.0254822
-0.0234985
-0.0216675
-0.0195312
-0.018158
-0.0164795
-0.0154114
-0.0140381
-0.0131226
-0.0125122
-0.0112915
-0.010376
-0.0088501
-0.00686646
-0.00488281
-0.00198364
0.000305176
0.00289917
0.00564575
0.00839233
0.0105286
0.01297
0.0151062
0.0175476
0.0187683
0.0198364
0.0204468
0.0209045
0.0209045
0.0209045
0.0209045
0.0210571
0.0219727
0.022583
0.0239563
0.0256348
0.0273132
0.0296021
0.0317383
0.0334167
0.0357056
0.0378418
0.0396729
0.0415039
0.0424194
0.0439453
0.0445557
0.0456238
0.0463867
0.0473022
0.0480652
0.0492859
0.0505066
0.0521851
0.0543213
0.0564575
0.0588989
0.0611877
0.0636292
0.0654602
0.0675964
0.0691223
0.070343
0.0704956
0.070343
0.0691223
0.0671387
0.0639343
0.0604248
0.0558472
0.0506592
0.0457764
0.040741
0.0358582
0.0309753
0.0256348
0.0213623
0.0163269
0.0115967
0.00671387
0.00259399
-0.00152588
-0.00579834
-0.0102234
-0.0146484
-0.0195312
-0.0244141
-0.0297546
-0.0349426
-0.0395203
-0.0439453
-0.0479126
-0.0517273
-0.0543213
-0.0570679
-0.0585938
-0.0598145
-0.0614929
-0.0621033
-0.0624084
-0.0627136
-0.0627136
-0.0627136
-0.0627136
-0.0630188
-0.0630188
-0.063324
-0.0639343
-0.0645447
-0.0648499
-0.0650024
-0.0650024
-0.0636292
-0.0627136
-0.0608826
-0.0584412
-0.0559998
-0.0532532
-0.050354
-0.0479126
-0.0456238
-0.0436401
-0.0413513
-0.039978
-0.0389099
-0.0389099
-0.0387573
-0.039978
-0.0410461
-0.0427246
-0.0444031
-0.0463867
-0.0480652
-0.0494385
-0.0502014
-0.0505066
-0.0508118
-0.0508118
-0.0505066
-0.0505066
-0.0500488
-0.0495911
-0.0492859
-0.0494385
-0.0489807
-0.0491333
-0.0492859
-0.0497437
-0.0506592
-0.0506592
-0.0514221
-0.0517273
-0.0523376
-0.0523376
-0.0526428
-0.0524902
-0.0526428
-0.052948
-0.0534058
-0.0535583
-0.0534058
-0.0537109
-0.0532532
-0.0531006
-0.0523376
-0.0511169
-0.0491333
-0.045166
-0.0402832
-0.0334167
-0.0241089
-0.0117493
0.00274658
0.0210571
0.043335
0.0689697
0.0984192
0.13031
0.164948
0.202637
0.24231
0.284271
0.328217
0.374603
0.422363
0.471191
0.520782
0.570984
0.621796
0.671844
0.720978
0.768585
0.814056
0.856323
0.895386
0.929565
0.958252
0.980225
0.993805
0.99884
0.994263
0.980225
0.955658
0.921173
0.877533
0.823822
0.761871
0.691986
0.61554
0.534058
0.448303
0.360413
0.270844
0.182495
0.0944519
0.0105286
-0.0697327
-0.144043
-0.211792
-0.271149
-0.321808
-0.364075
-0.397186
-0.4216
-0.438385
-0.447845
-0.450439
-0.447388
-0.439148
-0.426636
-0.410461
-0.391693
-0.370941
-0.348969
-0.325928
-0.302887
-0.280457
-0.259399
-0.239258
-0.22171
-0.205383
-0.19104
-0.178528
-0.167542
-0.158539
-0.15152
-0.145874
-0.142365
-0.138702
-0.136414
-0.13504
-0.133209
-0.132751
-0.131073
-0.129242
-0.128021
-0.12558
-0.123901
-0.121918
-0.119934
-0.117493
-0.115204
-0.113373
-0.111542
-0.110779
-0.109863
-0.109558
-0.109253
-0.109253
-0.108948
-0.108948
-0.108795
-0.10849
-0.108185
-0.106354
-0.105286
-0.103302
-0.101624
-0.0994873
-0.0978088
-0.0958252
-0.0938416
-0.0924683
-0.0907898
-0.0898743
-0.0889587
-0.0889587
-0.0886536
-0.0889587
-0.0886536
-0.0886536
-0.088501
-0.087738
-0.0868225
-0.085144
-0.083313
-0.0811768
-0.0788879
-0.0764465
-0.0741577
-0.0718689
-0.0691223
-0.0665283
-0.0646973
-0.0630188
-0.0622559
-0.0613403
-0.0613403
-0.0610352
-0.0608826
-0.0605774
-0.059967
-0.0593567
-0.0584412
-0.0570679
-0.0559998
-0.0541687
-0.0527954
-0.0506592
-0.0488281
-0.0471497
-0.045166
-0.0430298
-0.0413513
-0.0401306
-0.0392151
-0.0384521
-0.0379944
-0.0379944
-0.0376892
-0.0372314
-0.0369263
-0.0363159
-0.0349426
-0.0337219
-0.0320435
-0.0296021
-0.027771
-0.0256348
-0.0231934
-0.0209045
-0.0186157
-0.0166321
-0.0151062
-0.0138855
-0.01297
-0.0125122
-0.012207
-0.0125122
-0.01297
-0.01297
-0.0132751
-0.0138855
-0.01297
-0.0117493
-0.010376
-0.00900269
-0.00717163
-0.00518799
-0.00350952
-0.00167847
0.000152588
0.00213623
0.00366211
0.00411987
0.0050354
0.0050354
0.00518799
0.00488281
0.00488281
0.00488281
0.00564575
0.0062561
0.00732422
0.00869751
0.0100708
0.012207
0.0144958
0.0170898
0.0195312
0.0221252
0.0247192
0.0273132
0.0297546
0.0317383
0.0337219
0.03479
0.0361633
0.0372314
0.0382996
0.0396729
0.040741
0.042572
0.0448608
0.0476074
0.0508118
0.0537109
0.0575256
0.0613403
0.0646973
0.0688171
0.0723267
0.0759888
0.0787354
0.0814819
0.0837708
0.0860596
0.0878906
0.0892639
0.0907898
0.0926208
0.0949097
0.0967407
0.0999451
0.103302
0.107269
0.111237
0.115509
0.119781
0.124664
0.128632
0.133514
0.138092
0.142365
0.146179
0.149689
0.152893
0.155792
0.158234
0.160522
0.162659
0.164642
0.166779
0.168915
0.171356
0.174103
0.176239
0.178833
0.181274
0.184021
0.18631
0.188599
0.190582
0.192719
0.193787
0.194702
0.19577
0.195618
0.195618
0.196075
0.195618
0.196381
0.196075
0.196991
0.198364
0.199432
0.200653
0.201416
0.202026
0.202026
0.202332
0.201263
0.200348
0.198059
0.195618
0.19165
0.187073
0.181122
0.174561
0.167694
0.160522
0.152588
0.144958
0.137024
0.129395
0.121765
0.114594
0.107269
0.0994873
0.0917053
0.0840759
0.0762939
0.0674438
0.0587463
0.0502014
0.0410461
0.0323486
0.0231934
0.0138855
0.0050354
-0.00411987
-0.0120544
-0.019989
-0.0273132
-0.0334167
-0.0387573
-0.0437927
-0.0480652
-0.0523376
-0.0559998
-0.0592041
-0.0622559
-0.0656128
-0.0686646
-0.0720215
-0.0758362
-0.0794983
-0.0831604
-0.0868225
-0.0906372
-0.0939941
-0.0973511
-0.0997925
-0.102692
-0.103912
-0.105286
-0.106049
-0.106812
-0.106964
-0.107117
-0.106659
-0.106201
-0.105743
-0.105743
-0.105591
-0.105591
-0.106049
-0.106659
-0.107117
-0.108185
-0.10849
-0.1091
-0.109253
-0.1091
-0.10849
-0.107727
-0.106964
-0.106354
-0.105438
-0.104523
-0.103912
-0.103149
-0.102386
-0.102081
-0.102539
-0.102997
-0.103607
-0.10437
-0.105438
-0.106354
-0.107117
-0.107422
-0.107574
-0.107269
-0.106354
-0.10498
-0.103149
-0.101776
-0.0999451
-0.0982666
-0.096283
-0.0942993
-0.0924683
-0.0912476
-0.0900269
-0.0895691
-0.0895691
-0.0895691
-0.0904846
-0.0907898
-0.0914001
-0.0917053
-0.0920105
-0.0917053
-0.091095
-0.090332
-0.0883484
-0.0875854
-0.0857544
-0.0843811
-0.08255
-0.0810242
-0.0798035
-0.0790405
-0.0782776
-0.0776672
-0.0776672
-0.0779724
-0.0779724
-0.0782776
-0.0784302
-0.0782776
-0.078125
-0.0769043
-0.0761414
-0.0744629
-0.0727844
-0.0708008
-0.0689697
-0.0668335
-0.0648499
-0.0628662
-0.0611877
-0.059967
-0.0588989
-0.0585938
-0.0585938
-0.0590515
-0.0595093
-0.0605774
-0.0611877
-0.0621033
-0.0624084
-0.0619507
-0.0617981
-0.06073
-0.0595093
-0.058136
-0.0569153
-0.055542
-0.0540161
-0.0527954
-0.0505066
-0.0494385
-0.0485229
-0.0476074
-0.0473022
-0.0463867
-0.0465393
-0.0463867
-0.0462341
-0.045929
-0.0453186
-0.0444031
-0.0430298
-0.0410461
-0.0393677
-0.0376892
-0.0352478
-0.0335693
-0.0317383
-0.0302124
-0.0288391
-0.0280762
-0.0279236
-0.0279236
-0.0288391
-0.0299072
-0.0309753
-0.0325012
-0.0340271
-0.0350952
-0.0360107
-0.0366211
-0.0366211
-0.0363159
-0.0360107
-0.0352478
-0.0349426
-0.0340271
-0.0331116
-0.032196
-0.0311279
-0.0305176
-0.0300598
-0.0299072
-0.0302124
-0.0305176
-0.0311279
-0.0314331
-0.0323486
-0.032959
-0.0332642
-0.032959
-0.0323486
-0.0315857
-0.0302124
-0.0288391
-0.0274658
-0.0259399
-0.0242615
-0.0227356
-0.0218201
-0.0216675
-0.0215149
-0.0218201
-0.0227356
-0.0238037
-0.0254822
-0.0268555
-0.0285339
-0.0292969
-0.0300598
-0.0308228
-0.0305176
-0.0300598
-0.0297546
-0.0291443
-0.0280762
-0.0267029
-0.0259399
-0.025177
-0.0245667
-0.0238037
-0.0238037
-0.0242615
-0.0245667
-0.0254822
-0.0267029
-0.0274658
-0.0286865
-0.0297546
-0.0305176
-0.0305176
-0.0305176
-0.0299072
-0.0297546
-0.0285339
-0.027771
-0.0268555
-0.0257874
-0.0244141
-0.0231934
-0.0227356
-0.0221252
-0.0219727
-0.0221252
-0.0228882
-0.0231934
-0.0236511
-0.0244141
-0.0247192
-0.0248718
-0.0242615
-0.0241089
-0.0234985
-0.022583
-0.0215149
-0.0205994
-0.0193787
-0.0184631
-0.0175476
-0.0166321
-0.0167847
-0.0172424
-0.0177002
-0.0192261
-0.0202942
-0.0216675
-0.0230408
-0.0245667
-0.0254822
-0.0260925
-0.0262451
-0.0262451
-0.0253296
-0.0244141
-0.0236511
-0.0227356
-0.0210571
-0.0198364
-0.0187683
-0.0178528
-0.0166321
-0.0164795
-0.0167847
-0.0169373
-0.0178528
-0.0189209
-0.0193787
-0.0209045
-0.0215149
-0.0222778
-0.022583
-0.0221252
-0.0218201
-0.0212097
-0.0201416
-0.0196838
-0.0187683
-0.018158
-0.0170898
-0.0160217
-0.0158691
-0.0160217
-0.0161743
-0.0170898
-0.018158
-0.0195312
-0.020752
-0.0219727
-0.0233459
-0.0244141
-0.0239563
-0.0245667
-0.0239563
-0.0234985
-0.0227356
-0.0218201
-0.0209045
-0.0195312
-0.0187683
-0.0175476
-0.0164795
-0.0161743
-0.0160217
-0.0161743
-0.0170898
-0.0184631
-0.0193787
-0.0202942
-0.0212097
-0.0215149
-0.0218201
-0.0212097
-0.0205994
-0.0193787
-0.0180054
-0.0167847
-0.0152588
-0.0140381
-0.0125122
-0.0109863
-0.0102234
-0.00976562
-0.00946045
-0.00930786
-0.00930786
-0.00961304
-0.00946045
-0.00915527
-0.00869751
-0.00686646
-0.00518799
-0.00289917
-0.000152588
0.00366211
0.00701904
0.0105286
0.0140381
0.0180054
0.0219727
0.0250244
0.0280762
0.0308228
0.0331116
0.0350952
0.0361633
0.037384
0.0387573
0.0396729
0.0396729
0.040741
0.0419617
0.0431824
0.0439453
0.0453186
0.0457764
0.0462341
0.0469971
0.0476074
0.0482178
0.0482178
0.0485229
0.0482178
0.0482178
0.0482178
0.0479126
0.0476074
0.0476074
0.0480652
0.0489807
0.0500488
0.0517273
0.0540161
0.0564575
0.0592041
0.0624084
0.0648499
0.0675964
0.070343
0.0724792
0.0738525
0.0746155
0.0741577
0.0730896
0.0704956
0.0672913
0.0636292
0.0588989
0.0537109
0.0482178
0.0430298
0.0379944
0.0331116
0.0286865
0.0241089
0.0196838
0.0152588
0.0109863
0.00701904
0.00335693
-0.000762939
-0.00488281
-0.00930786
-0.0134277
-0.0177002
-0.0221252
-0.0262451
-0.0299072
-0.032959
-0.035553
-0.0379944
-0.0396729
-0.0405884
-0.0422668
-0.0434875
-0.0450134
-0.0473022
-0.0498962
-0.0524902
-0.0556946
-0.0595093
-0.0627136
-0.0663757
-0.0698853
-0.0735474
-0.0761414
-0.0788879
-0.0805664
-0.0816345
-0.0820923
-0.0819397
-0.0804138
-0.0785828
-0.0756836
-0.0730896
-0.0700378
-0.0668335
-0.0636292
-0.06073
-0.057373
-0.0552368
-0.0532532
-0.0517273
-0.0511169
-0.0506592
-0.0506592
-0.0512695
-0.0515747
-0.0521851
-0.0527954
-0.0531006
-0.0532532
-0.0526428
-0.0520325
-0.0512695
-0.0500488
-0.0486755
-0.0476074
-0.045929
-0.0444031
-0.042572
-0.0415039
-0.040741
-0.0405884
-0.0404358
-0.040741
-0.0410461
-0.0418091
-0.0427246
-0.0439453
-0.0445557
-0.0454712
-0.0460815
-0.0471497
-0.04776
-0.0480652
-0.0480652
-0.0486755
-0.0479126
-0.0471497
-0.0457764
-0.0439453
-0.0411987
-0.0382996
-0.032959
-0.0270081
-0.0184631
-0.00732422
0.00656128
0.0231934
0.043335
0.0669861
0.0947571
0.125122
0.158691
0.195312
0.234222
0.275879
0.319824
0.366211
0.414124
0.463104
0.513306
0.564117
0.614777
0.665741
0.716095
0.765991
0.814209
0.859375
0.901947
0.940857
0.974731
1.00204
1.02219
1.03394
1.03607
1.02798
1.00967
0.980988
0.942383
0.893555
0.834961
0.767365
0.692139
0.609436
0.521088
0.428009
0.332336
0.234985
0.138397
0.0440979
-0.0456238
-0.130463
-0.20752
-0.276947
-0.337677
-0.388031
-0.428772
-0.459137
-0.480804
-0.493317
-0.496979
-0.493622
-0.482941
-0.467072
-0.446472
-0.421906
-0.395203
-0.367279
-0.33844
-0.309296
-0.28183
-0.25528
-0.231323
-0.209351
-0.189514
-0.173035
-0.158844
-0.147247
-0.138702
-0.131836
-0.127106
-0.124969
-0.124207
-0.124359
-0.125885
-0.127869
-0.1297
-0.132446
-0.134125
-0.135498
-0.136566
-0.137177
-0.137024
-0.136566
-0.135345
-0.134583
-0.132904
-0.130768
-0.129089
-0.127258
-0.125732
-0.124359
-0.123444
-0.122681
-0.12207
-0.12146
-0.12085
-0.120392
-0.118561
-0.11734
-0.115204
-0.112915
-0.110016
-0.107422
-0.10498
-0.101776
-0.0996399
-0.0964355
-0.0941467
-0.0918579
-0.0901794
-0.0889587
-0.0880432
-0.0869751
-0.0871277
-0.0866699
-0.0868225
-0.0868225
-0.0863647
-0.0852966
-0.0846863
-0.0828552
-0.0810242
-0.0794983
-0.0779724
-0.075531
-0.0740051
-0.0717163
-0.0698853
-0.068512
-0.0675964
-0.0663757
-0.0656128
-0.0656128
-0.0657654
-0.065155
-0.0646973
-0.0645447
-0.0636292
-0.0622559
-0.0611877
-0.0595093
-0.0578308
-0.0566101
-0.0546265
-0.0531006
-0.0518799
-0.0505066
-0.0491333
-0.0480652
-0.0473022
-0.0469971
-0.0469971
-0.0466919
-0.0469971
-0.0473022
-0.0473022
-0.0473022
-0.0465393
-0.0454712
-0.0444031
-0.0424194
-0.039978
-0.038147
-0.0357056
-0.0335693
-0.0315857
-0.0291443
-0.0271606
-0.0253296
-0.0241089
-0.0230408
-0.0222778
-0.0224304
-0.0219727
-0.0221252
-0.0216675
-0.0218201
-0.0213623
-0.0201416
-0.0189209
-0.0178528
-0.0161743
-0.0143433
-0.0128174
-0.0109863
-0.00930786
-0.00747681
-0.00579834
-0.00488281
-0.00396729
-0.00320435
-0.00183105
-0.00213623
-0.00167847
-0.00152588
-0.00106812
-0.000457764
0.000915527
0.00274658
0.00488281
0.00762939
0.0106812
0.0141907
0.0177002
0.0213623
0.025177
0.0291443
0.032959
0.0363159
0.0393677
0.0415039
0.0437927
0.0454712
0.0471497
0.0485229
0.0502014
0.0520325
0.0538635
0.0558472
0.0582886
0.0613403
0.0640869
0.0671387
0.0700378
0.0738525
0.0769043
0.0799561
0.0831604
0.0857544
0.0888062
0.0907898
0.0930786
0.0952148
0.0968933
0.098877
0.101166
0.103455
0.106354
0.109863
0.113983
0.117798
0.12207
0.126648
0.131226
0.135803
0.140381
0.145111
0.149536
0.153198
0.15625
0.159607
0.162048
0.164337
0.166626
0.168152
0.169983
0.171814
0.17395
0.177002
0.179443
0.182648
0.185852
0.189362
0.192566
0.195618
0.198822
0.202026
0.20462
0.207062
0.209351
0.210419
0.211182
0.211792
0.212097
0.211945
0.211792
0.211792
0.211182
0.211334
0.211334
0.211029
0.210724
0.209961
0.20874
0.207214
0.205078
0.202179
0.199127
0.195007
0.19043
0.185089
0.17868
0.172119
0.164642
0.157013
0.148621
0.140381
0.132294
0.123749
0.116272
0.10788
0.0999451
0.0915527
0.0837708
0.0756836
0.0674438
0.0592041
0.0511169
0.042572
0.0337219
0.0248718
0.0158691
0.00686646
-0.00183105
-0.0105286
-0.0186157
-0.0263977
-0.0331116
-0.0392151
-0.0448608
-0.0498962
-0.0543213
-0.0588989
-0.0627136
-0.0663757
-0.0694275
-0.0727844
-0.0756836
-0.0785828
-0.0820923
-0.085907
-0.0897217
-0.093689
-0.0975037
-0.100861
-0.104523
-0.107574
-0.110321
-0.112152
-0.113678
-0.114288
-0.115509
-0.115356
-0.115662
-0.115509
-0.115204
-0.114288
-0.113831
-0.113831
-0.113678
-0.113373
-0.113831
-0.114899
-0.114746
-0.115814
-0.116272
-0.11673
-0.117035
-0.11673
-0.116119
-0.115051
-0.114288
-0.112762
-0.112
-0.110931
-0.109253
-0.108185
-0.106964
-0.106506
-0.105591
-0.105743
-0.105591
-0.106506
-0.107269
-0.107422
-0.107574
-0.107422
-0.107422
-0.106812
-0.105743
-0.104523
-0.102539
-0.101013
-0.0990295
-0.0970459
-0.0950623
-0.0932312
-0.0917053
-0.0901794
-0.0898743
-0.0894165
-0.0897217
-0.0900269
-0.090332
-0.0909424
-0.0915527
-0.0915527
-0.0918579
-0.0914001
-0.090332
-0.0892639
-0.087738
-0.0868225
-0.0852966
-0.0839233
-0.0823975
-0.0814819
-0.0801086
-0.0798035
-0.0791931
-0.0790405
-0.0794983
-0.0801086
-0.0813293
-0.0814819
-0.0816345
-0.0816345
-0.0816345
-0.0808716
-0.0799561
-0.0787354
-0.0776672
-0.0758362
-0.0738525
-0.0723267
-0.0701904
-0.0683594
-0.0666809
-0.065155
-0.0640869
-0.0631714
-0.0624084
-0.0622559
-0.0624084
-0.0627136
-0.0624084
-0.0624084
-0.0621033
-0.0613403
-0.0602722
-0.0585938
-0.0570679
-0.0552368
-0.0541687
-0.0523376
-0.0505066
-0.0491333
-0.0471497
-0.0462341
-0.0456238
-0.0454712
-0.0450134
-0.045166
-0.0456238
-0.0463867
-0.0469971
-0.0471497
-0.0468445
-0.0469971
-0.0460815
-0.0450134
-0.0437927
-0.0427246
-0.0411987
-0.0404358
-0.0386047
-0.037384
-0.0364685
-0.0357056
-0.0358582
-0.0360107
-0.0364685
-0.037384
-0.0379944
-0.0386047
-0.0392151
-0.0395203
-0.0402832
-0.0395203
-0.0390625
-0.0382996
-0.0370789
-0.0360107
-0.03479
-0.0340271
-0.0328064
-0.0315857
-0.0309753
-0.030365
-0.0305176
-0.0306702
-0.0309753
-0.0315857
-0.0326538
-0.0337219
-0.0343323
-0.0350952
-0.0350952
-0.0350952
-0.0346375
-0.0338745
-0.0328064
-0.0317383
-0.0306702
-0.0296021
-0.0283813
-0.0279236
-0.0273132
-0.0270081
-0.0271606
-0.0276184
-0.0279236
-0.0288391
-0.0292969
-0.030365
-0.0311279
-0.0317383
-0.0317383
-0.0318909
-0.0311279
-0.0306702
-0.0292969
-0.0285339
-0.0276184
-0.0256348
-0.0244141
-0.0230408
-0.0222778
-0.0216675
-0.0213623
-0.0213623
-0.0221252
-0.0224304
-0.0233459
-0.0238037
-0.0244141
-0.025177
-0.0250244
-0.0250244
-0.0239563
-0.0236511
-0.0224304
-0.0213623
-0.0205994
-0.0193787
-0.0183105
-0.0170898
-0.0161743
-0.0158691
-0.0163269
-0.0164795
-0.0177002
-0.0193787
-0.0205994
-0.0221252
-0.0236511
-0.025177
-0.0263977
-0.0268555
-0.0274658
-0.0276184
-0.0276184
-0.0270081
-0.0271606
-0.0267029
-0.0262451
-0.025177
-0.0248718
-0.0244141
-0.0244141
-0.0247192
-0.0250244
-0.0253296
-0.0263977
-0.0268555
-0.0274658
-0.027771
-0.0279236
-0.0273132
-0.0263977
-0.0254822
-0.0242615
-0.0227356
-0.0215149
-0.0204468
-0.0190735
-0.0184631
-0.0177002
-0.0178528
-0.0183105
-0.0187683
-0.0198364
-0.0213623
-0.0227356
-0.0242615
-0.0253296
-0.0267029
-0.0274658
-0.027771
-0.0276184
-0.0276184
-0.0267029
-0.0260925
-0.025177
-0.0239563
-0.0228882
-0.0212097
-0.0201416
-0.0192261
-0.0190735
-0.0187683
-0.0189209
-0.0195312
-0.019989
-0.019989
-0.020752
-0.0210571
-0.0209045
-0.0201416
-0.0192261
-0.0183105
-0.0175476
-0.0164795
-0.0152588
-0.0140381
-0.0132751
-0.012207
-0.0114441
-0.0108337
-0.0109863
-0.0117493
-0.0125122
-0.0140381
-0.0151062
-0.0164795
-0.0178528
-0.0190735
-0.019989
-0.0201416
-0.0202942
-0.0202942
-0.0202942
-0.0201416
-0.0192261
-0.0187683
-0.0184631
-0.0175476
-0.017395
-0.017395
-0.017395
-0.0177002
-0.0186157
-0.0196838
-0.0205994
-0.0215149
-0.0221252
-0.0221252
-0.0222778
-0.0218201
-0.0204468
-0.0187683
-0.0169373
-0.0149536
-0.0125122
-0.0108337
-0.00793457
-0.00595093
-0.00320435
-0.00152588
0.000457764
0.00213623
0.00366211
0.00518799
0.00640869
0.00778198
0.0102234
0.0120544
0.014801
0.0177002
0.020752
0.0244141
0.0285339
0.0317383
0.0352478
0.0384521
0.0413513
0.0442505
0.0466919
0.0483704
0.0491333
0.050354
0.0509644
0.0500488
0.0492859
0.0480652
0.0468445
0.0456238
0.0450134
0.0440979
0.0437927
0.0437927
0.0440979
0.0450134
0.045929
0.0474548
0.0489807
0.0512695
0.052948
0.0544739
0.0563049
0.0579834
0.0590515
0.0601196
0.0617981
0.062561
0.0636292
0.0648499
0.0657654
0.0674438
0.0686646
0.0698853
0.0706482
0.0709534
0.0709534
0.0706482
0.0692749
0.0669861
0.0643921
0.0608826
0.0563049
0.0512695
0.0448608
0.0393677
0.0332642
0.0263977
0.019989
0.0137329
0.00762939
0.00244141
-0.00228882
-0.00656128
-0.010376
-0.0137329
-0.0169373
-0.019989
-0.0228882
-0.0253296
-0.0279236
-0.0306702
-0.0338745
-0.0369263
-0.0405884
-0.0437927
-0.0473022
-0.0505066
-0.0537109
-0.0563049
-0.0584412
-0.0602722
-0.0613403
-0.0617981
-0.0622559
-0.0619507
-0.0613403
-0.06073
-0.0595093
-0.0584412
-0.0578308
-0.0569153
-0.0567627
-0.0563049
-0.0564575
-0.0567627
-0.0570679
-0.0570679
-0.057373
-0.0569153
-0.0563049
-0.055542
-0.0546265
-0.0535583
-0.0527954
-0.0517273
-0.0508118
-0.0498962
-0.0486755
-0.0482178
-0.0476074
-0.0474548
-0.0476074
-0.0485229
-0.0488281
-0.0497437
-0.0506592
-0.0518799
-0.0523376
-0.0527954
-0.052948
-0.0521851
-0.0511169
-0.0502014
-0.0488281
-0.0473022
-0.0460815
-0.0440979
-0.042572
-0.0413513
-0.0404358
-0.0396729
-0.039978
-0.0411987
-0.0431824
-0.045166
-0.0474548
-0.0498962
-0.0523376
-0.0544739
-0.0553894
-0.0556946
-0.0550842
-0.0537109
-0.0514221
-0.0479126
-0.0430298
-0.0366211
-0.0279236
-0.0164795
-0.00366211
0.0120544
0.0308228
0.0517273
0.0758362
0.103455
0.133057
0.166321
0.201721
0.240326
0.281525
0.325623
0.372314
0.42038
0.470428
0.521545
0.573883
0.626678
0.679474
0.731659
0.783386
0.832214
0.878143
0.92041
0.957031
0.988464
1.01242
1.02875
1.03592
1.03378
1.02188
0.999603
0.968018
0.926208
0.875244
0.814972
0.745697
0.668488
0.584259
0.493927
0.399017
0.300903
0.201721
0.103149
0.00762939
-0.0839233
-0.170135
-0.248718
-0.318909
-0.378876
-0.429077
-0.468292
-0.496979
-0.514526
-0.522766
-0.521393
-0.511627
-0.494995
-0.472717
-0.445099
-0.415344
-0.383453
-0.351105
-0.319214
-0.288391
-0.259857
-0.234222
-0.211182
-0.19104
-0.173645
-0.158997
-0.147247
-0.137787
-0.130615
-0.12558
-0.122375
-0.120392
-0.120239
-0.120697
-0.122223
-0.123444
-0.126038
-0.128479
-0.131683
-0.134583
-0.137177
-0.139465
-0.140991
-0.14267
-0.142975
-0.143127
-0.141907
-0.140381
-0.137939
-0.136108
-0.133362
-0.130463
-0.127869
-0.125275
-0.122375
-0.120544
-0.118561
-0.117035
-0.116425
-0.115967
-0.115051
-0.115356
-0.114899
-0.114746
-0.114441
-0.113831
-0.112915
-0.111237
-0.109406
-0.108185
-0.106201
-0.104218
-0.102234
-0.0999451
-0.0978088
-0.0961304
-0.0947571
-0.0938416
-0.0927734
-0.0923157
-0.0918579
-0.0918579
-0.0915527
-0.0906372
-0.0907898
-0.0892639
-0.0878906
-0.0865173
-0.0848389
-0.08255
-0.0804138
-0.0779724
-0.0759888
-0.0741577
-0.0718689
-0.0704956
-0.0689697
-0.0679016
-0.067749
-0.0671387
-0.0672913
-0.0671387
-0.0672913
-0.0669861
-0.0669861
-0.065918
-0.0650024
-0.0634766
-0.0621033
-0.0601196
-0.0579834
-0.0559998
-0.0537109
-0.0520325
-0.0494385
-0.0474548
-0.045929
-0.0448608
-0.0439453
-0.0431824
-0.0427246
-0.0422668
-0.0421143
-0.0418091
-0.0416565
-0.0405884
-0.0396729
-0.0376892
-0.0363159
-0.0343323
-0.032959
-0.0309753
-0.0288391
-0.0273132
-0.0253296
-0.0238037
-0.0224304
-0.0215149
-0.0209045
-0.0204468
-0.0204468
-0.0204468
-0.0201416
-0.019989
-0.0192261
-0.0183105
-0.0167847
-0.0151062
-0.0128174
-0.0108337
-0.00839233
-0.00579834
-0.00305176
-0.000457764
0.00213623
0.00457764
0.00640869
0.00808716
0.00961304
0.0109863
0.0117493
0.0128174
0.0134277
0.0138855
0.0151062
0.0167847
0.0183105
0.0205994
0.0231934
0.0259399
0.0292969
0.032196
0.0350952
0.0379944
0.040741
0.0434875
0.0460815
0.0483704
0.0505066
0.0521851
0.0541687
0.0556946
0.0572205
0.0593567
0.0619507
0.0646973
0.0680542
0.0718689
0.0758362
0.0804138
0.0846863
0.0892639
0.0941467
0.0987244
0.103455
0.10788
0.111694
0.115814
0.118713
0.12207
0.124054
0.127411
0.130157
0.133057
0.135498
0.13916
0.14267
0.14679
0.150604
0.155029
0.159149
0.163269
0.167542
0.171356
0.175323
0.17868
0.181885
0.184326
0.186462
0.188293
0.189362
0.191193
0.191956
0.193024
0.194397
0.195923
0.197754
0.199738
0.202332
0.20462
0.207062
0.209198
0.211639
0.213623
0.215454
0.216522
0.217896
0.217743
0.217438
0.216827
0.215607
0.213165
0.211029
0.208588
0.205994
0.203247
0.2005
0.197601
0.194702
0.190887
0.187225
0.1828
0.177765
0.172577
0.166626
0.16037
0.153198
0.144501
0.135345
0.126038
0.116425
0.106506
0.0959778
0.085907
0.0758362
0.0662231
0.0569153
0.0483704
0.0398254
0.0317383
0.0244141
0.0164795
0.00900269
0.00198364
-0.00457764
-0.0115967
-0.0187683
-0.025177
-0.0328064
-0.039978
-0.0471497
-0.0537109
-0.0604248
-0.0666809
-0.0724792
-0.0773621
-0.0817871
-0.0854492
-0.0886536
-0.0917053
-0.0939941
-0.096283
-0.0985718
-0.100861
-0.102844
-0.104675
-0.106964
-0.108948
-0.112
-0.114441
-0.116882
-0.119171
-0.121613
-0.122833
-0.125122
-0.125885
-0.126343
-0.126495
-0.126801
-0.126343
-0.125732
-0.124512
-0.123596
-0.122528
-0.121307
-0.120392
-0.119629
-0.119476
-0.119324
-0.119476
-0.120544
-0.121155
-0.121307
-0.12207
-0.12207
-0.121765
-0.121155
-0.120392
-0.119171
-0.11795
-0.116425
-0.115356
-0.114136
-0.112457
-0.111237
-0.110321
-0.109406
-0.1091
-0.10849
-0.108948
-0.1091
-0.109558
-0.109711
-0.109711
-0.109406
-0.108948
-0.10788
-0.106201
-0.10437
-0.102844
-0.101166
-0.0991821
-0.0970459
-0.0950623
-0.0939941
-0.0927734
-0.0917053
-0.091095
-0.0907898
-0.0914001
-0.0914001
-0.0917053
-0.0920105
-0.0917053
-0.0921631
-0.0920105
-0.091095
-0.0901794
-0.0892639
-0.0875854
-0.0865173
-0.0845337
-0.0830078
-0.0813293
-0.0799561
-0.0785828
-0.0776672
-0.0773621
-0.0769043
-0.0772095
-0.0778198
-0.078125
-0.0787354
-0.0790405
-0.0793457
-0.0793457
-0.0785828
-0.078125
-0.0767517
-0.0756836
-0.0743103
-0.0724792
-0.0714111
-0.0700378
-0.0682068
-0.0674438
-0.0668335
-0.0666809
-0.0665283
-0.0663757
-0.0671387
-0.0675964
-0.0679016
-0.0682068
-0.0682068
-0.067749
-0.0671387
-0.065918
-0.0645447
-0.0630188
-0.0613403
-0.0598145
-0.058136
-0.0566101
-0.0549316
-0.0534058
-0.0531006
-0.0526428
-0.0526428
-0.052948
-0.0534058
-0.0541687
-0.0549316
-0.055542
-0.0561523
-0.0559998
-0.0552368
-0.0541687
-0.0531006
-0.0520325
-0.050354
-0.0489807
-0.0483704
-0.0466919
-0.0453186
-0.0442505
-0.043335
-0.042572
-0.0421143
-0.0421143
-0.0424194
-0.042572
-0.0428772
-0.0430298
-0.0431824
-0.0424194
-0.0416565
-0.0402832
-0.0386047
-0.037384
-0.0361633
-0.0349426
-0.0334167
-0.0325012
-0.0311279
-0.0305176
-0.030365
-0.0305176
-0.0308228
-0.0318909
-0.0326538
-0.0340271
-0.0352478
-0.0358582
-0.0366211
-0.0370789
-0.0367737
-0.0361633
-0.0357056
-0.03479
-0.0335693
-0.032959
-0.0318909
-0.030365
-0.0297546
-0.0291443
-0.0288391
-0.0288391
-0.0291443
-0.0302124
-0.0312805
-0.0320435
-0.0332642
-0.0343323
-0.03479
-0.0350952
-0.0346375
-0.0340271
-0.0334167
-0.032196
-0.0312805
-0.0299072
-0.0291443
-0.0279236
-0.0270081
-0.0259399
-0.0254822
-0.0257874
-0.0260925
-0.0268555
-0.0276184
-0.0283813
-0.0291443
-0.0300598
-0.0311279
-0.0312805
-0.0312805
-0.0311279
-0.0306702
-0.0302124
-0.0296021
-0.0289917
-0.0288391
-0.0286865
-0.0282288
-0.0282288
-0.0285339
-0.0291443
-0.0305176
-0.0317383
-0.0326538
-0.0340271
-0.0350952
-0.0361633
-0.0367737
-0.0369263
-0.0361633
