0.441589
0.434265
0.427551
0.420532
0.413818
0.406799
0.399475
0.392456
0.385742
0.378723
0.371094
0.364075
0.35675
0.350342
0.343323
0.335693
0.327454
0.32074
0.314941
0.306702
0.300598
0.292969
0.286255
0.279541
0.272217
0.264893
0.258484
0.25116
0.243835
0.237122
0.230408
0.222778
0.216064
0.209656
0.203552
0.196838
0.189819
0.183105
0.177307
0.171204
0.16449
0.158081
0.151672
0.146179
0.13916
0.133667
0.127258
0.12085
0.114746
0.108337
0.102844
0.0967407
0.0912476
0.0854492
0.0802612
0.0753784
0.0698853
0.0653076
0.0604248
0.0540161
0.0494385
0.0439453
0.0393677
0.03479
0.0296021
0.0247192
0.0204468
0.0158691
0.0112915
0.00610352
0.00213623
-0.00213623
-0.00610352
-0.0112915
-0.0143433
-0.0180054
-0.0219727
-0.0259399
-0.0299072
-0.0332642
-0.0369263
-0.0411987
-0.0436401
-0.0469971
-0.0506592
-0.0543213
-0.057373
-0.06073
-0.0634766
-0.0662231
-0.0698853
-0.072937
-0.0759888
-0.0784302
-0.0811768
-0.0842285
-0.0866699
-0.0894165
-0.0921631
-0.0939941
-0.0964355
-0.0985718
-0.100708
-0.102539
-0.104675
-0.106812
-0.109558
-0.111084
-0.111694
-0.112915
-0.116272
-0.117188
-0.118408
-0.120239
-0.120544
-0.122681
-0.123291
-0.123901
-0.124817
-0.126343
-0.127258
-0.127563
-0.128784
-0.129089
-0.130005
-0.130615
-0.132446
-0.131836
-0.133362
-0.133057
-0.134277
-0.134888
-0.135803
-0.135193
-0.136414
-0.136719
-0.137329
-0.136414
-0.137939
-0.138245
-0.13855
-0.137939
-0.137634
-0.138245
-0.136719
-0.137024
-0.137634
-0.137024
-0.137634
-0.137024
-0.137024
-0.136719
-0.135803
-0.136108
-0.135803
-0.134583
-0.135193
-0.134277
-0.134583
-0.133667
-0.132446
-0.132751
-0.131226
-0.131531
-0.13031
-0.130005
-0.1297
-0.127869
-0.126953
-0.127258
-0.126038
-0.125427
-0.124817
-0.124207
-0.122375
-0.122375
-0.121155
-0.119934
-0.119324
-0.118713
-0.116272
-0.115356
-0.115051
-0.113831
-0.112915
-0.111084
-0.110168
-0.109253
-0.108337
-0.107117
-0.106201
-0.105286
-0.103455
-0.101929
-0.101318
-0.0997925
-0.0985718
-0.0970459
-0.09552
-0.0942993
-0.0927734
-0.0915527
-0.0897217
-0.0888062
-0.0869751
-0.0863647
-0.0842285
-0.0823975
-0.0811768
-0.0796509
-0.0790405
-0.0772095
-0.0762939
-0.0741577
-0.0723267
-0.0704956
-0.0692749
-0.0683594
-0.065918
-0.0646973
-0.0628662
-0.0622559
-0.0610352
-0.0595093
-0.0576782
-0.0561523
-0.0546265
-0.0537109
-0.0518799
-0.0509644
-0.050354
-0.0482178
-0.0473022
-0.0460815
-0.0445557
-0.0436401
-0.0427246
-0.0411987
-0.0393677
-0.038147
-0.0372314
-0.0366211
-0.0344849
-0.0332642
-0.032959
-0.0317383
-0.0302124
-0.0296021
-0.0286865
-0.0280762
-0.027771
-0.0259399
-0.0256348
-0.0244141
-0.0231934
-0.0228882
-0.0222778
-0.0219727
-0.0204468
-0.0210571
-0.0195312
-0.0180054
-0.0186157
-0.017395
-0.0170898
-0.0177002
-0.0167847
-0.0164795
-0.0158691
-0.015564
-0.0149536
-0.0140381
-0.0146484
-0.0140381
-0.0152588
-0.0146484
-0.0137329
-0.0143433
-0.0140381
-0.0140381
-0.0143433
-0.0143433
-0.0137329
-0.0140381
-0.0131226
-0.0149536
-0.0140381
-0.0149536
-0.015564
-0.015564
-0.0158691
-0.0158691
-0.0164795
-0.0177002
-0.017395
-0.0180054
-0.0189209
-0.0192261
-0.0192261
-0.0210571
-0.0210571
-0.0213623
-0.0228882
-0.022583
-0.0241089
-0.0247192
-0.0250244
-0.0253296
-0.0262451
-0.0271606
-0.027771
-0.0286865
-0.0296021
-0.0302124
-0.0308228
-0.0314331
-0.0323486
-0.0332642
-0.0341797
-0.0354004
-0.0363159
-0.0369263
-0.0375366
-0.0384521
-0.0390625
-0.0405884
-0.0415039
-0.0421143
-0.0430298
-0.043335
-0.0442505
-0.0457764
-0.0463867
-0.0476074
-0.0479126
-0.0491333
-0.0497437
-0.0506592
-0.0506592
-0.0515747
-0.0524902
-0.0531006
-0.0534058
-0.0543213
-0.0531006
-0.0537109
-0.0543213
-0.0552368
-0.0549316
-0.0537109
-0.0543213
-0.0537109
-0.0527954
-0.0515747
-0.0512695
-0.0497437
-0.0473022
-0.0454712
-0.0430298
-0.0405884
-0.0369263
-0.0338745
-0.0289917
-0.0244141
-0.0186157
-0.0137329
-0.00762939
-0.000610352
0.00701904
0.0152588
0.0241089
0.0344849
0.0445557
0.0564575
0.0686646
0.0811768
0.09552
0.111389
0.127258
0.144958
0.164185
0.183105
0.205078
0.226746
0.249634
0.274048
0.299988
0.325317
0.352478
0.381165
0.410767
0.441284
0.473633
0.505981
0.540161
0.575562
0.610352
0.646362
0.683899
0.721436
0.759888
0.798645
0.837708
0.877686
0.917358
0.957336
0.997009
1.0376
1.07758
1.11755
1.15784
1.19751
1.23718
1.27594
1.3147
1.35345
1.39099
1.42731
1.46393
1.49963
1.53503
1.56952
1.60248
1.63513
1.66748
1.698
1.72821
1.7572
1.78497
1.81274
1.83899
1.86371
1.88843
1.91162
1.93451
1.95587
1.97601
1.99646
2.01508
2.03278
2.04956
2.06482
2.0813
2.09534
2.10938
2.12189
2.13318
2.14478
2.15424
2.16431
2.17194
2.18018
2.18781
2.1933
2.19971
2.2049
2.20917
2.21375
2.2171
2.21924
2.22168
2.2229
2.22412
2.22443
2.22473
2.22321
2.22351
2.22229
2.21954
2.21802
2.21497
2.21222
2.20856
2.20459
2.20123
2.19574
2.19208
2.18689
2.18262
2.17682
2.17072
2.16461
2.15851
2.1521
2.14569
2.13867
2.13135
2.12402
2.1167
2.10876
2.10083
2.0932
2.08527
2.07672
2.06818
2.06085
2.0517
2.04285
2.03461
2.02545
2.0166
2.00714
1.9989
1.98914
1.97968
1.97083
1.96136
1.9516
1.94244
1.93298
1.92383
1.91406
1.9043
1.89423
1.88538
1.87561
1.86646
1.85638
1.84723
1.83716
1.82831
1.81793
1.80908
1.79962
1.79077
1.7807
1.77155
1.76239
1.75293
1.74377
1.73462
1.72516
1.71722
1.70837
1.69983
1.69128
1.68274
1.67389
1.66626
1.6571
1.64886
1.64124
1.633
1.62476
1.61713
1.60889
1.60126
1.59393
1.5863
1.57928
1.57135
1.56403
1.55731
1.54907
1.54175
1.53595
1.52863
1.52161
1.5152
1.50879
1.50238
1.49597
1.48956
1.48315
1.47705
1.47064
1.46515
1.45966
1.45386
1.44806
1.44226
1.43738
1.43066
1.42639
1.41998
1.4151
1.40991
1.40503
1.39984
1.39435
1.39008
1.38458
1.3797
1.37543
1.37054
1.36536
1.36078
1.3562
1.35193
1.34644
1.34186
1.33759
1.33362
1.32782
1.32294
1.31775
1.31378
1.30859
1.30371
1.29852
1.29364
1.28784
1.28235
1.27686
1.27167
1.26587
1.25977
1.25366
1.24847
1.24237
1.23596
1.22925
1.22253
1.21521
1.20941
1.20148
1.19507
1.18652
1.1792
1.17096
1.16333
1.15601
1.14746
1.13892
1.13007
1.12091
1.11176
1.10229
1.09314
1.08429
1.07513
1.06445
1.05499
1.04492
1.03455
1.02448
1.0144
1.00464
0.994873
0.983887
0.974121
0.96283
0.953064
0.942688
0.933228
0.922546
0.912476
0.902405
0.892944
0.881958
0.872498
0.862732
0.852356
0.842896
0.834045
0.82428
0.81543
0.80658
0.798035
0.788574
0.78064
0.771484
0.76416
0.756226
0.747681
0.740051
0.733032
0.726624
0.718994
0.711975
0.706482
0.700378
0.693665
0.687256
0.682068
0.67688
0.671692
0.666809
0.661926
0.658569
0.653992
0.65033
0.645447
0.6427
0.639038
0.636597
0.633545
0.630493
0.628357
0.626221
0.623474
0.622559
0.619812
0.618286
0.617065
0.61554
0.614929
0.613708
0.613403
0.612488
0.612183
0.612183
0.611267
0.611267
0.610657
0.610657
0.610352
0.610352
0.610352
0.610046
0.609741
0.610352
0.611267
0.610962
0.610352
0.610657
0.611267
0.611572
0.612183
0.611877
0.611877
0.613098
0.612793
0.613098
0.613403
0.613403
0.613098
0.613403
0.613403
0.612793
0.612488
0.613098
0.612793
0.612183
0.612183
0.610962
0.610962
0.610962
0.610352
0.609741
0.608826
0.60791
0.6073
0.605774
0.604248
0.603027
0.602417
0.600586
0.599365
0.597534
0.596619
0.594482
0.592346
0.59082
0.588989
0.586548
0.584412
0.582581
0.580444
0.577393
0.574951
0.571899
0.569153
0.566101
0.562744
0.559998
0.555725
0.552368
0.548401
0.544434
0.541077
0.537415
0.532532
0.52887
0.523987
0.520325
0.515442
0.510559
0.505981
0.501404
0.496521
0.491943
0.486145
0.481873
0.475769
0.470581
0.465393
0.4599
0.453796
0.448303
0.442505
0.436707
0.430603
0.424194
0.418396
0.412292
0.406494
0.399475
0.393677
0.387878
0.381775
0.37384
0.368042
0.361328
0.354919
0.348206
0.341797
0.334778
0.328064
0.321045
0.313721
0.307007
0.300598
0.293274
0.286255
0.279541
0.272217
0.264893
0.258789
0.251465
0.244141
0.237732
0.230713
0.223389
0.215454
0.208435
0.202332
0.195007
0.187988
0.180359
0.173035
0.166016
0.158997
0.152588
0.144958
0.13855
0.132141
0.124817
0.118103
0.111389
0.10498
0.0976562
0.0906372
0.0836182
0.0778198
0.0714111
0.0650024
0.0576782
0.0509644
0.0442505
0.0384521
0.0320435
0.0256348
0.0192261
0.0137329
0.00732422
0.00183105
-0.00396729
-0.00976562
-0.0161743
-0.0216675
-0.0274658
-0.0326538
-0.038147
-0.0436401
-0.0482178
-0.0543213
-0.0595093
-0.0646973
-0.0695801
-0.0750732
-0.0799561
-0.0848389
-0.0894165
-0.0939941
-0.0991821
-0.103149
-0.107117
-0.112
-0.115662
-0.119934
-0.123596
-0.127869
-0.132141
-0.136108
-0.140076
-0.143433
-0.147705
-0.151062
-0.154419
-0.158386
-0.161438
-0.1651
-0.168152
-0.170898
-0.174561
-0.178223
-0.181274
-0.183716
-0.186768
-0.189819
-0.193176
-0.195312
-0.198059
-0.200195
-0.202942
-0.205688
-0.207825
-0.209961
-0.212708
-0.214844
-0.217285
-0.218811
-0.222473
-0.223694
-0.22522
-0.227661
-0.228882
-0.231018
-0.232849
-0.23407
-0.236206
-0.238037
-0.239563
-0.241089
-0.24231
-0.24353
-0.245361
-0.246582
-0.248413
-0.248413
-0.249634
-0.25116
-0.25238
-0.253296
-0.254517
-0.255432
-0.256348
-0.256958
-0.257874
-0.258179
-0.258484
-0.259399
-0.26001
-0.26062
-0.261536
-0.26123
-0.262146
-0.262451
-0.263062
-0.263062
-0.263672
-0.264282
-0.264282
-0.264282
-0.264587
-0.265198
-0.265198
-0.265198
-0.264893
-0.264893
-0.265503
-0.265198
-0.265198
-0.265198
-0.265503
-0.265503
-0.265198
-0.265503
-0.265503
-0.265503
-0.265503
-0.265198
-0.265198
-0.265198
-0.264893
-0.263672
-0.264282
-0.263672
-0.263977
-0.263062
-0.263062
-0.262451
-0.262451
-0.261841
-0.261536
-0.260925
-0.260925
-0.26062
-0.259705
-0.259399
-0.258789
-0.257874
-0.257874
-0.257874
-0.256653
-0.256653
-0.255127
-0.255127
-0.254517
-0.253906
-0.252686
-0.25238
-0.25238
-0.25116
-0.25116
-0.250244
-0.249939
-0.248413
-0.248413
-0.247803
-0.247803
-0.246582
-0.246582
-0.245361
-0.243835
-0.24353
-0.24292
-0.242615
-0.241089
-0.240173
-0.238647
-0.239258
-0.237732
-0.236816
-0.236511
-0.235596
-0.234375
-0.23407
-0.233154
-0.232239
-0.231018
-0.230408
-0.229492
-0.228882
-0.227661
-0.227661
-0.226135
-0.224609
-0.224915
-0.224915
-0.222473
-0.222168
-0.221558
-0.220947
-0.220337
-0.219421
-0.219116
-0.218201
-0.21759
-0.21698
-0.21637
-0.214844
-0.214233
-0.213623
-0.213318
-0.211792
-0.210876
-0.210571
-0.209961
-0.20874
-0.207825
-0.206909
-0.206604
-0.205383
-0.204773
-0.203552
-0.202637
-0.202332
-0.202026
-0.201111
-0.201111
-0.199585
-0.198669
-0.198059
-0.196533
-0.195923
-0.195312
-0.194092
-0.194397
-0.193481
-0.192566
-0.191956
-0.19104
-0.19043
-0.190125
-0.189819
-0.188904
-0.188293
-0.187378
-0.186768
-0.186462
-0.185852
-0.185547
-0.185547
-0.184326
-0.183411
-0.183716
-0.182495
-0.181885
-0.18158
-0.181274
-0.180359
-0.179749
-0.178833
-0.179138
-0.178833
-0.178223
-0.177917
-0.177612
-0.177612
-0.177002
-0.177307
-0.176392
-0.176697
-0.175781
-0.175781
-0.175781
-0.174866
-0.174866
-0.17395
-0.174866
-0.174866
-0.174255
-0.17395
-0.174255
-0.174561
-0.174561
-0.174866
-0.174866
-0.175171
-0.174866
-0.175476
-0.176086
-0.175781
-0.175781
-0.176392
-0.175781
-0.176392
-0.177002
-0.177002
-0.177307
-0.178223
-0.177612
-0.177917
-0.179138
-0.179138
-0.179138
-0.179443
-0.179443
-0.180664
-0.180359
-0.180359
-0.180664
-0.18158
-0.180969
-0.18158
-0.183105
-0.1828
-0.183105
-0.183411
-0.183105
-0.184326
-0.184326
-0.184937
-0.185242
-0.185242
-0.185852
-0.185242
-0.186462
-0.185852
-0.186768
-0.186768
-0.187988
-0.187378
-0.187683
-0.187683
-0.187683
-0.188599
-0.187988
-0.188293
-0.188293
-0.187988
-0.187683
-0.187378
-0.186768
-0.186768
-0.186157
-0.185547
-0.184631
-0.184021
-0.183105
-0.18219
-0.180054
-0.179138
-0.177917
-0.175171
-0.17334
-0.170898
-0.168762
-0.166016
-0.162964
-0.158997
-0.155029
-0.151062
-0.14679
-0.141296
-0.134277
-0.128784
-0.121155
-0.113525
-0.105286
-0.0958252
-0.085144
-0.0741577
-0.062561
-0.0485229
-0.0350952
-0.0195312
-0.00366211
0.0134277
0.0308228
0.050354
0.0708008
0.0921631
0.115051
0.138855
0.163879
0.19104
0.218201
0.246582
0.276794
0.308228
0.340576
0.374146
0.408936
0.444946
0.480347
0.519409
0.557556
0.596008
0.636597
0.67749
0.718689
0.759888
0.802917
0.844727
0.887146
0.929871
0.9729
1.01624
1.05957
1.10229
1.1441
1.18744
1.22894
1.27075
1.31073
1.35132
1.3913
1.43066
1.46881
1.50635
1.54297
1.57898
1.61346
1.64734
1.68121
1.71234
1.74438
1.7746
1.80389
1.83167
1.85944
1.88477
1.90979
1.93451
1.9574
1.97937
2.00073
2.02057
2.0401
2.05872
2.07581
2.0929
2.10754
2.1225
2.13654
2.14966
2.16156
2.17285
2.18323
2.19269
2.20245
2.21039
2.21802
2.22504
2.23175
2.23694
2.24152
2.24609
2.24945
2.25311
2.25616
2.25769
2.25983
2.26013
2.26074
2.26135
2.26013
2.25983
2.258
2.25647
2.25464
2.25128
2.24945
2.2464
2.24274
2.23907
2.23511
2.23083
2.22717
2.22229
2.2171
2.21191
2.20642
2.20032
2.19604
2.18933
2.18201
2.1759
2.16949
2.16339
2.15607
2.14935
2.14172
2.1347
2.12769
2.12097
2.11365
2.10632
2.09839
2.09106
2.08435
2.07581
2.06848
2.05963
2.05231
2.04468
2.03705
2.02881
2.01996
2.01233
2.0047
1.99707
1.98914
1.9809
1.97327
1.96533
1.95709
1.94824
1.94153
1.93359
1.92535
1.91681
1.90948
1.90063
1.89423
1.88568
1.87866
1.87042
1.8634
1.85486
1.84814
1.84082
1.83319
1.82617
1.81824
1.81091
1.80359
1.79779
1.79077
1.78314
1.77612
1.7688
1.7627
1.75629
1.74835
1.74255
1.73615
1.72882
1.72241
1.71692
1.71082
1.70441
1.698
1.69281
1.6861
1.67999
1.6745
1.6687
1.66321
1.65771
1.65253
1.64703
1.64154
1.63635
1.63147
1.62567
1.62048
1.61499
1.61011
1.60492
1.59973
1.59454
1.59058
1.58569
1.58051
1.57593
1.57104
1.56586
1.56189
1.55731
1.55243
1.54846
1.54358
1.539
1.53412
1.52985
1.52527
1.521
1.51611
1.51184
1.50787
1.50299
1.49902
1.49384
1.49017
1.48499
1.48071
1.47614
1.47186
1.46729
1.46271
1.45813
1.45325
1.44745
1.44318
1.43799
1.43341
1.42761
1.42212
1.41754
1.41144
1.40594
1.40076
1.39557
1.38916
1.38306
1.37756
1.37115
1.36536
1.35773
1.35162
1.34521
1.3382
1.33148
1.32416
1.31714
1.3089
1.30127
1.29364
1.28601
1.27869
1.26984
1.2619
1.25366
1.24542
1.23657
1.22742
1.21918
1.20941
1.20026
1.1908
1.18103
1.17188
1.16089
1.15173
1.14166
1.1322
1.12152
1.11115
1.10199
1.09131
1.08154
1.07117
1.06049
1.05103
1.04126
1.03088
1.02081
1.01013
1.00037
0.990601
0.98053
0.970764
0.960693
0.950928
0.941162
0.931702
0.921936
0.912476
0.90332
0.894165
0.885925
0.87677
0.868225
0.85968
0.851135
0.843506
0.835571
0.827332
0.819702
0.812073
0.805054
0.798035
0.790405
0.783997
0.777588
0.771179
0.765076
0.758667
0.752869
0.74646
0.741272
0.736084
0.731506
0.726318
0.721741
0.715942
0.712585
0.707092
0.703735
0.699158
0.695801
0.691528
0.687866
0.684204
0.680542
0.67749
0.673828
0.671387
0.66803
0.665283
0.661926
0.6604
0.657043
0.654907
0.652161
0.65033
0.648193
0.646362
0.643921
0.64209
0.640564
0.637817
0.635986
0.634766
0.632324
0.631409
0.629883
0.627747
0.626221
0.624695
0.622253
0.621033
0.619202
0.618896
0.61676
0.615234
0.614014
0.611572
0.609741
0.608215
0.606079
0.605164
0.603027
0.600891
0.59906
0.597839
0.596008
0.593567
0.592041
0.589905
0.587463
0.585938
0.583801
0.581665
0.578918
0.577393
0.574341
0.571594
0.570068
0.567322
0.564575
0.561218
0.558777
0.556335
0.552979
0.549622
0.546265
0.543518
0.539551
0.536499
0.531616
0.529175
0.524902
0.521545
0.517578
0.512695
0.509033
0.505066
0.501709
0.497131
0.492859
0.487671
0.484009
0.479736
0.475159
0.470276
0.465393
0.461121
0.456238
0.451355
0.446167
0.441589
0.436401
0.431519
0.426025
0.420837
0.415649
0.410461
0.405273
0.39917
0.393677
0.388794
0.38269
0.376892
0.371094
0.36499
0.359192
0.353394
0.34729
0.341492
0.334778
0.328674
0.322876
0.316772
0.310974
0.303955
0.296936
0.291138
0.284424
0.27771
0.271912
0.266113
0.258789
0.25177
0.245667
0.238953
0.232239
0.224915
0.219421
0.212097
0.205688
0.198364
0.192566
0.185242
0.179443
0.172119
0.16571
0.159302
0.153198
0.1474
0.140076
0.133667
0.128174
0.120239
0.114746
0.108948
0.101929
0.0964355
0.0894165
0.0839233
0.0784302
0.0723267
0.0662231
0.0610352
0.0540161
0.0482178
0.0427246
0.0366211
0.0308228
0.0256348
0.0195312
0.0137329
0.00854492
0.00244141
-0.00335693
-0.00854492
-0.0134277
-0.0201416
-0.0250244
-0.0302124
-0.0354004
-0.0408936
-0.0454712
-0.0512695
-0.0564575
-0.0613403
-0.0662231
-0.0708008
-0.0756836
-0.0802612
-0.085144
-0.0891113
-0.0942993
-0.098877
-0.103149
-0.108032
-0.112
-0.115967
-0.12085
-0.124207
-0.128784
-0.132751
-0.137024
-0.140381
-0.144653
-0.148315
-0.151062
-0.155334
-0.158691
-0.162659
-0.165405
-0.169373
-0.173035
-0.176392
-0.179138
-0.183105
-0.186157
-0.189514
-0.192261
-0.195312
-0.19928
-0.201416
-0.204468
-0.207825
-0.209961
-0.213318
-0.216064
-0.218811
-0.221558
-0.223694
-0.22644
-0.228271
-0.231628
-0.233459
-0.235291
-0.237732
-0.241089
-0.24231
-0.244446
-0.247498
-0.248718
-0.249939
-0.25238
-0.253906
-0.256348
-0.258179
-0.259399
-0.261536
-0.262451
-0.265503
-0.265808
-0.266724
-0.26947
-0.270691
-0.271912
-0.272827
-0.274658
-0.275574
-0.2771
-0.27771
-0.279541
-0.279846
-0.281677
-0.282288
-0.284119
-0.284424
-0.284729
-0.286255
-0.28656
-0.28717
-0.288086
-0.288696
-0.289612
-0.289917
-0.290527
-0.291748
-0.291748
-0.292664
-0.292358
-0.292358
-0.293579
-0.293884
-0.294189
-0.294495
-0.2948
-0.2948
-0.295105
-0.29541
-0.29541
-0.29541
-0.295105
-0.29541
-0.295715
-0.296631
-0.296631
-0.296326
-0.297241
-0.296936
-0.296631
-0.297241
-0.297546
-0.296631
-0.296936
-0.297241
-0.296326
-0.296631
-0.296326
-0.296326
-0.296936
-0.296631
-0.296631
-0.296326
-0.296936
-0.296326
-0.295715
-0.296631
-0.296326
-0.296326
-0.296021
-0.295105
-0.296021
-0.295715
-0.295105
-0.295105
-0.29541
-0.2948
-0.294495
-0.294495
-0.293884
-0.293274
-0.293579
-0.292969
-0.292358
-0.292053
-0.291748
-0.291443
-0.292053
-0.290527
-0.290527
-0.290222
-0.289917
-0.289307
-0.288696
-0.288391
-0.287476
-0.287781
-0.28717
-0.286865
-0.28595
-0.285645
-0.285645
-0.284729
-0.285034
-0.283813
-0.284119
-0.284119
-0.282898
-0.282288
-0.282288
-0.281677
-0.281677
-0.280762
-0.280762
-0.279236
-0.279236
-0.27832
-0.27771
-0.277405
-0.27771
-0.2771
-0.276489
-0.274963
-0.274963
-0.274963
-0.274963
-0.273743
-0.273132
-0.273132
-0.273438
-0.273132
-0.271912
-0.271606
-0.270996
-0.270996
-0.270386
-0.26947
-0.26947
-0.267944
-0.26886
-0.267334
-0.266418
-0.266724
-0.266113
-0.266113
-0.265198
-0.264587
-0.263367
-0.263672
-0.263977
-0.263062
-0.262451
-0.262146
-0.261536
-0.261536
-0.26062
-0.26062
-0.26001
-0.259094
-0.258789
-0.259094
-0.259094
-0.258789
-0.258484
-0.258179
-0.257874
-0.257263
-0.257568
-0.257874
-0.258789
-0.257568
-0.257263
-0.257874
-0.257263
-0.256958
-0.257263
-0.256958
-0.257263
-0.257263
-0.256958
-0.256958
-0.256348
-0.257568
-0.256958
-0.257263
-0.257568
-0.257263
-0.257263
-0.258179
-0.258484
-0.258484
-0.258789
-0.257874
-0.258179
-0.258179
-0.258484
-0.259399
-0.259399
-0.259094
-0.259094
-0.259705
-0.26001
-0.260315
-0.26123
-0.26062
-0.260315
-0.260925
-0.26123
-0.261536
-0.262146
-0.262146
-0.261841
-0.262756
-0.262756
-0.263062
-0.263977
-0.263062
-0.263672
-0.263367
-0.264282
-0.264282
-0.264587
-0.264893
-0.265503
-0.265808
-0.266418
-0.267029
-0.267639
-0.26825
-0.26825
-0.26825
-0.26886
-0.26947
-0.269775
-0.269775
-0.26947
-0.270386
-0.270996
-0.270386
-0.271912
-0.270996
-0.270996
-0.271606
-0.272217
-0.272217
-0.271606
-0.271912
-0.271912
-0.272522
-0.271606
-0.271606
-0.271301
-0.270996
-0.270081
-0.26947
-0.268555
-0.268555
-0.267334
-0.266113
-0.264587
-0.262756
-0.261536
-0.260315
-0.257874
-0.255737
-0.252991
-0.250244
-0.247192
-0.243225
-0.238647
-0.23407
-0.229492
-0.222473
-0.21698
-0.210876
-0.202637
-0.194092
-0.185242
-0.174866
-0.16571
-0.154114
-0.141296
-0.128784
-0.115051
-0.0991821
-0.0836182
-0.0671387
-0.0476074
-0.0286865
-0.0088501
0.0128174
0.0350952
0.0595093
0.083313
0.109253
0.136719
0.164795
0.194397
0.225525
0.256653
0.289917
0.323181
0.358276
0.394592
0.429993
0.46814
0.506592
0.544739
0.584106
0.624084
0.664368
0.704651
0.746155
0.787048
0.828247
0.870056
0.911865
0.953064
0.993958
1.03485
1.07574
1.11572
1.15601
1.19476
1.23291
1.27167
1.30951
1.34644
1.38245
1.41754
1.45203
1.48651
1.51947
1.5506
1.58234
1.61194
1.64185
1.66992
1.69739
1.72333
1.74866
1.77399
1.79688
1.81976
1.84113
1.86218
1.88171
1.90063
1.91833
1.93542
1.9519
1.96655
1.98181
1.99463
2.00836
2.02026
2.03125
2.04193
2.052
2.06116
2.0694
2.07733
2.08374
2.08954
2.09503
2.10022
2.10419
2.10876
2.11182
2.11548
2.11823
2.11914
2.12067
2.12189
2.1225
2.1228
2.1228
2.12189
2.12006
2.11945
2.117
2.11517
2.11212
2.11029
2.10602
2.10388
2.09961
2.09534
2.09137
2.0871
2.08191
2.07703
2.07245
2.06726
2.06207
2.05566
2.05017
2.04437
2.03796
2.03186
2.02515
2.01904
2.01172
2.00531
1.9989
1.99097
1.98395
1.97723
1.96991
1.96259
1.95435
1.94733
1.94
1.93237
1.92505
1.91772
1.90948
1.90186
1.89484
1.8866
1.87897
1.87164
1.86401
1.85608
1.84845
1.84021
1.8335
1.82526
1.81702
1.81
1.80176
1.79474
1.7865
1.77948
1.77216
1.76483
1.75812
1.75079
1.74286
1.73584
1.72852
1.72241
1.71478
1.70776
1.70013
1.69312
1.6864
1.6806
1.67297
1.66626
1.65985
1.65344
1.64642
1.64032
1.633
1.6275
1.6217
1.6153
1.6095
1.6037
1.5976
1.59088
1.58569
1.57867
1.5741
1.56799
1.56158
1.5567
1.5509
1.54572
1.53992
1.53473
1.52863
1.52374
1.51917
1.51367
1.5094
1.50421
1.49933
1.49414
1.48987
1.48468
1.4798
1.47522
1.47095
1.46545
1.46149
1.45691
1.45233
1.44714
1.44318
1.4389
1.43433
1.43036
1.42609
1.42181
1.41724
1.41205
1.409
1.40442
1.39954
1.39557
1.39099
1.38702
1.38245
1.37756
1.37299
1.36871
1.36414
1.35925
1.35437
1.34949
1.34613
1.34094
1.33575
1.33057
1.32538
1.31989
1.3147
1.3092
1.3028
1.2973
1.29059
1.28479
1.27838
1.27258
1.26556
1.25885
1.25275
1.24573
1.2381
1.23169
1.22375
1.21552
1.20819
1.20117
1.19293
1.18469
1.17706
1.16821
1.15936
1.15112
1.14136
1.13281
1.12366
1.11389
1.10474
1.09497
1.08612
1.07605
1.06781
1.05713
1.04736
1.03699
1.02722
1.01715
1.00769
0.997314
0.987854
0.977173
0.967712
0.957947
0.947876
0.9375
0.927124
0.917664
0.907898
0.898743
0.889282
0.879211
0.869141
0.859985
0.851135
0.842285
0.83252
0.823669
0.815125
0.805969
0.797729
0.7901
0.782166
0.773315
0.766602
0.759277
0.751953
0.745239
0.737305
0.731201
0.724792
0.718384
0.71167
0.706177
0.699768
0.694885
0.689392
0.684509
0.679016
0.673828
0.669861
0.665894
0.661316
0.656738
0.652771
0.648499
0.645447
0.642395
0.638428
0.635376
0.632019
0.629272
0.626526
0.62439
0.622253
0.619812
0.617065
0.615234
0.612793
0.611267
0.609436
0.60791
0.605469
0.604553
0.602112
0.601501
0.599976
0.59845
0.596924
0.595703
0.594788
0.593262
0.592651
0.591431
0.59021
0.589294
0.588684
0.587158
0.586853
0.585327
0.585327
0.583801
0.582581
0.581665
0.581055
0.580139
0.579224
0.578003
0.576172
0.575256
0.57373
0.572205
0.570068
0.569458
0.568848
0.567017
0.565491
0.563049
0.561829
0.559998
0.558472
0.557251
0.554199
0.552063
0.550232
0.548096
0.545959
0.543213
0.541077
0.537415
0.534668
0.532227
0.52948
0.526428
0.523682
0.52063
0.517273
0.513916
0.510254
0.506897
0.50415
0.500183
0.495911
0.492554
0.489197
0.484619
0.481262
0.476379
0.472717
0.46814
0.464478
0.45929
0.455933
0.450439
0.445862
0.441284
0.436707
0.430908
0.426636
0.421753
0.41687
0.411377
0.405579
0.400696
0.395203
0.389404
0.383606
0.378418
0.373535
0.367432
0.361938
0.35614
0.350647
0.344543
0.339661
0.333862
0.328064
0.321655
0.315552
0.309448
0.30304
0.297546
0.291443
0.286255
0.279236
0.272522
0.267029
0.260925
0.254211
0.248108
0.24231
0.235901
0.228882
0.221863
0.21637
0.210571
0.203552
0.197449
0.19104
0.184021
0.178223
0.171814
0.1651
0.158997
0.152893
0.146179
0.139771
0.133972
0.126953
0.121155
0.114136
0.108032
0.102234
0.0961304
0.0894165
0.0839233
0.0787354
0.072937
0.0665283
0.0610352
0.0552368
0.0485229
0.043335
0.0372314
0.0317383
0.0259399
0.0201416
0.0143433
0.00823975
0.00305176
-0.00244141
-0.00793457
-0.0137329
-0.0186157
-0.0241089
-0.0286865
-0.0344849
-0.0390625
-0.045166
-0.0497437
-0.0546265
-0.06073
-0.0646973
-0.0695801
-0.0744629
-0.0793457
-0.0839233
-0.088501
-0.093689
-0.0973511
-0.102539
-0.106812
-0.112
-0.115051
-0.119629
-0.124207
-0.128479
-0.131531
-0.135803
-0.140076
-0.144653
-0.14801
-0.151672
-0.15564
-0.159607
-0.163269
-0.166931
-0.170898
-0.17334
-0.177612
-0.180664
-0.184021
-0.188599
-0.19104
-0.194092
-0.197449
-0.200806
-0.203552
-0.206909
-0.209961
-0.212097
-0.215454
-0.218506
-0.221252
-0.223694
-0.22583
-0.229492
-0.231323
-0.23407
-0.237122
-0.239563
-0.241394
-0.244141
-0.245972
-0.248413
-0.250244
-0.25238
-0.254517
-0.255737
-0.258179
-0.259705
-0.260925
-0.263062
-0.264282
-0.266724
-0.26825
-0.270081
-0.270691
-0.273438
-0.274353
-0.276489
-0.276794
-0.278931
-0.280151
-0.281677
-0.282288
-0.283813
-0.284729
-0.28595
-0.287781
-0.287476
-0.288696
-0.290222
-0.291138
-0.291748
-0.292358
-0.292358
-0.293884
-0.2948
-0.29541
-0.296631
-0.296326
-0.296631
-0.296631
-0.297852
-0.298462
-0.298157
-0.298767
-0.299072
-0.299988
-0.300293
-0.300903
-0.300903
-0.301208
-0.301514
-0.302124
-0.301208
-0.301514
-0.301819
-0.302124
-0.303345
-0.302124
-0.302429
-0.302124
-0.301514
-0.301819
-0.301208
-0.301208
-0.300598
-0.300598
-0.301208
-0.300903
-0.299988
-0.299988
-0.299683
-0.299377
-0.298462
-0.299072
-0.298157
-0.297546
-0.297852
-0.296631
-0.296631
-0.296021
-0.295715
-0.2948
-0.294495
-0.294495
-0.292969
-0.292358
-0.292053
-0.291443
-0.290833
-0.289917
-0.289307
-0.288696
-0.288086
-0.28717
-0.28717
-0.28656
-0.285339
-0.285034
-0.283508
-0.283203
-0.282593
-0.281982
-0.280762
-0.281067
-0.280762
-0.278931
-0.278931
-0.27771
-0.277405
-0.2771
-0.276184
-0.275269
-0.274963
-0.273743
-0.273743
-0.273132
-0.272522
-0.271912
-0.270996
-0.270996
-0.269775
-0.268555
-0.267029
-0.267334
-0.266418
-0.266113
-0.264893
-0.263977
-0.263977
-0.262756
-0.261841
-0.261536
-0.26001
-0.259094
-0.258484
-0.258789
-0.257874
-0.257263
-0.256348
-0.255432
-0.255127
-0.254517
-0.254211
-0.253601
-0.252686
-0.25177
-0.25177
-0.250549
-0.249634
-0.248718
-0.248108
-0.247803
-0.246887
-0.245972
-0.246277
-0.245972
-0.245056
-0.243835
-0.243835
-0.242615
-0.24231
-0.241394
-0.241394
-0.240784
-0.240173
-0.239868
-0.238342
-0.238037
-0.238342
-0.237122
-0.236816
-0.236206
-0.23468
-0.234985
-0.233765
-0.233154
-0.232544
-0.232239
-0.231628
-0.231018
-0.231323
-0.229797
-0.229187
-0.228577
-0.228882
-0.227051
-0.226746
-0.226746
-0.226135
-0.226135
-0.22522
-0.224304
-0.224915
-0.224304
-0.224304
-0.223999
-0.223083
-0.223389
-0.222473
-0.222473
-0.222473
-0.221863
-0.221558
-0.221252
-0.221558
-0.220642
-0.220642
-0.220337
-0.220337
-0.219727
-0.220642
-0.219727
-0.219727
-0.219727
-0.220337
-0.220337
-0.220032
-0.219116
-0.220337
-0.219727
-0.220032
-0.219116
-0.219727
-0.220642
-0.219727
-0.219421
-0.219727
-0.220032
-0.220032
-0.219421
-0.220032
-0.220337
-0.219727
-0.220337
-0.220642
-0.220947
-0.220947
-0.221252
-0.221252
-0.221863
-0.221863
-0.221558
-0.221558
-0.222168
-0.222473
-0.222473
-0.222473
-0.222778
-0.223083
-0.222168
-0.223083
-0.223389
-0.223389
-0.223999
-0.224304
-0.224915
-0.224609
-0.225525
-0.224915
-0.22522
-0.226135
-0.226135
-0.226135
-0.226746
-0.227356
-0.227051
-0.227661
-0.227051
-0.227356
-0.227356
-0.227661
-0.228271
-0.228271
-0.228271
-0.228577
-0.228271
-0.228577
-0.228271
-0.228577
-0.227966
-0.228271
-0.228271
-0.227661
-0.227356
-0.226746
-0.22644
-0.225525
-0.225525
-0.224915
-0.223083
-0.222778
-0.221863
-0.220947
-0.218506
-0.21698
-0.214844
-0.213318
-0.211487
-0.209351
-0.206299
-0.203247
-0.198975
-0.195923
-0.191345
-0.187378
-0.18158
-0.175171
-0.169373
-0.162354
-0.154724
-0.147095
-0.138245
-0.128479
-0.117798
-0.106812
-0.093689
-0.0814819
-0.0665283
-0.0521851
-0.0360107
-0.0186157
0.000610352
0.0195312
0.039978
0.0613403
0.0836182
0.106201
0.131836
0.158386
0.186157
0.214539
0.24353
0.274658
0.307312
0.339966
0.37323
0.40863
0.444641
0.480957
0.519104
0.557251
0.597229
0.636292
0.677185
0.717773
0.759277
0.801392
0.84198
0.88501
0.925903
0.968018
1.00922
1.05133
1.09253
1.13342
1.17401
1.2146
1.25397
1.29303
1.33179
1.36993
1.40717
1.44379
1.47949
1.51459
1.54846
1.58142
1.61377
1.64459
1.6748
1.70441
1.73248
1.75995
1.78711
1.81305
1.83746
1.86157
1.88416
1.90582
1.92657
1.94611
1.96533
1.98303
2.00043
2.01569
2.03094
2.04529
2.05933
2.07092
2.08344
2.09473
2.10327
2.11304
2.1225
2.12982
2.13654
2.14325
2.14935
2.15424
2.15851
2.16187
2.16614
2.16888
2.17072
2.17285
2.17407
2.17468
2.17529
2.17438
2.17468
2.17224
2.17163
2.1701
2.16766
2.16553
2.16248
2.15881
2.15546
2.15118
2.14691
2.14264
2.13806
2.13348
2.12769
2.12219
2.117
2.11212
2.10571
2.099
2.09259
2.08618
2.07947
2.07245
2.06573
2.05902
2.0517
2.04407
2.03613
2.0285
2.02057
2.01324
2.00531
1.99707
1.98914
1.98059
1.97205
1.96381
1.95526
1.94733
1.93787
1.92963
1.92139
1.91315
1.90369
1.89514
1.88629
1.87805
1.8692
1.86157
1.85242
1.84357
1.83472
1.82587
1.81763
1.80969
1.80084
1.7926
1.78284
1.77551
1.76605
1.75842
1.74957
1.74103
1.73401
1.72516
1.71753
1.70929
1.70166
1.69312
1.68518
1.67786
1.66992
1.6626
1.65558
1.64703
1.64032
1.63269
1.62506
1.61774
1.61102
1.60431
1.59698
1.59058
1.58417
1.57654
1.56982
1.56372
1.55792
1.55121
1.5448
1.53839
1.5329
1.52679
1.5213
1.51459
1.5097
1.50421
1.49902
1.49384
1.48834
1.48315
1.47736
1.47247
1.46729
1.46332
1.45813
1.45355
1.44806
1.44287
1.43921
1.43372
1.42975
1.42365
1.41998
1.41541
1.41113
1.40564
1.40198
1.39679
1.39282
1.38763
1.38214
1.37817
1.37329
1.36902
1.36414
1.35864
1.35376
1.34888
1.34399
1.33881
1.33362
1.32874
1.32355
1.31836
1.31195
1.30676
1.30096
1.29578
1.28845
1.28174
1.27655
1.27014
1.26343
1.25671
1.25031
1.24359
1.23627
1.22925
1.22131
1.21399
1.20667
1.19904
1.1908
1.18286
1.17493
1.16547
1.15753
1.14899
1.14014
1.13068
1.12152
1.11176
1.1026
1.09283
1.08307
1.0733
1.06323
1.05408
1.04401
1.03394
1.02448
1.01349
1.00433
0.994263
0.984192
0.974121
0.964355
0.954285
0.943909
0.934753
0.924377
0.915222
0.905762
0.896606
0.887146
0.877991
0.868835
0.860291
0.85144
0.842285
0.834351
0.826721
0.817871
0.810852
0.803223
0.796204
0.78949
0.782166
0.776367
0.769348
0.762939
0.757141
0.751343
0.745544
0.740356
0.736084
0.730896
0.726318
0.722351
0.718384
0.715027
0.711365
0.708618
0.705261
0.702515
0.699158
0.697021
0.69458
0.692444
0.689697
0.688477
0.68634
0.685425
0.683899
0.682983
0.681763
0.681458
0.680237
0.680237
0.680237
0.679321
0.679016
0.679016
0.679016
0.679321
0.679016
0.679626
0.679626
0.680237
0.679626
0.680847
0.680847
0.681152
0.681458
0.682678
0.682373
0.683899
0.683899
0.684814
0.68512
0.687256
0.68634
0.686951
0.688477
0.688477
0.689392
0.689392
0.690308
0.690002
0.691528
0.691528
0.690613
0.691528
0.691223
0.691833
0.691833
0.691223
0.691528
0.691223
0.690308
0.689697
0.689392
0.688782
0.687561
0.687561
0.686646
0.684814
0.684204
0.682373
0.681458
0.679626
0.677795
0.675964
0.674133
0.672302
0.670471
0.667725
0.664978
0.663452
0.661011
0.658569
0.655212
0.652771
0.650024
0.646973
0.643616
0.640259
0.637207
0.634155
0.629883
0.626831
0.622559
0.617981
0.614624
0.610657
0.606079
0.601501
0.596924
0.592957
0.587769
0.583801
0.579224
0.574341
0.569153
0.563354
0.558167
0.553589
0.548401
0.542603
0.536499
0.530701
0.525208
0.519714
0.514221
0.507812
0.501404
0.4953
0.488892
0.483704
0.476685
0.470276
0.463867
0.457153
0.45105
0.444336
0.437317
0.430908
0.424194
0.417786
0.410461
0.403748
0.397034
0.39032
0.382996
0.376892
0.369873
0.362854
0.355835
0.348816
0.342102
0.334778
0.328674
0.32135
0.314636
0.308838
0.301208
0.294495
0.28717
0.280457
0.274048
0.267334
0.260925
0.253601
0.246582
0.239563
0.23407
0.226746
0.219727
0.213623
0.206299
0.199585
0.193787
0.187073
0.18158
0.174255
0.167847
0.162659
0.15625
0.150452
0.143738
0.137329
0.131836
0.125732
0.119019
0.113831
0.107422
0.102234
0.0958252
0.0909424
0.0848389
0.0796509
0.0738525
0.0698853
0.0637817
0.0585938
0.0531006
0.0491333
0.0442505
0.0384521
0.0332642
0.0292969
0.0244141
0.0183105
0.0146484
0.0100708
0.00579834
0.000915527
-0.00366211
-0.00793457
-0.012207
-0.0164795
-0.020752
-0.0256348
-0.0289917
-0.032959
-0.0369263
-0.0405884
-0.0448608
-0.0485229
-0.0518799
-0.0561523
-0.0595093
-0.0628662
-0.0668335
-0.0701904
-0.0735474
-0.0762939
-0.0799561
-0.0830078
-0.0857544
-0.0888062
-0.0909424
-0.0946045
-0.0973511
-0.0997925
-0.101624
-0.10498
-0.107422
-0.110474
-0.11261
-0.115051
-0.117493
-0.119934
-0.121765
-0.124512
-0.126343
-0.128784
-0.131226
-0.132751
-0.133972
-0.136414
-0.13855
-0.13916
-0.140686
-0.143127
-0.144348
-0.145874
-0.14801
-0.148315
-0.150452
-0.151367
-0.152588
-0.153809
-0.155334
-0.15625
-0.158081
-0.158691
-0.159912
-0.160217
-0.161438
-0.161743
-0.162354
-0.163269
-0.16449
-0.164795
-0.16571
-0.165405
-0.166016
-0.166321
-0.167236
-0.167542
-0.167847
-0.167847
-0.167847
-0.167847
-0.168152
-0.168457
-0.168457
-0.168762
-0.168457
-0.167847
-0.167847
-0.167236
-0.168152
-0.167236
-0.166931
-0.166321
-0.166931
-0.165405
-0.165405
-0.164795
-0.164185
-0.16449
-0.163879
-0.163574
-0.163269
-0.163269
-0.162354
-0.161743
-0.160828
-0.160217
-0.159607
-0.158081
-0.158691
-0.15686
-0.156555
-0.155945
-0.155334
-0.155029
-0.153809
-0.152893
-0.152893
-0.151978
-0.151062
-0.150146
-0.148926
-0.148621
-0.14801
-0.146484
-0.146179
-0.145874
-0.143738
-0.142822
-0.142517
-0.140686
-0.140076
-0.13916
-0.137939
-0.137634
-0.136414
-0.134888
-0.133667
-0.133057
-0.131836
-0.130615
-0.129395
-0.128784
-0.127869
-0.126648
-0.125122
-0.124512
-0.123291
-0.122375
-0.121155
-0.119934
-0.119019
-0.118713
-0.116882
-0.116577
-0.115662
-0.115051
-0.113525
-0.113525
-0.11261
-0.111694
-0.110779
-0.110168
-0.109863
-0.108032
-0.106812
-0.106506
-0.105896
-0.10498
-0.103455
-0.103455
-0.102539
-0.101624
-0.101318
-0.0991821
-0.0997925
-0.098877
-0.0991821
-0.0976562
-0.0970459
-0.0973511
-0.0958252
-0.0961304
-0.0952148
-0.0949097
-0.0939941
-0.093689
-0.093689
-0.0927734
-0.0921631
-0.0921631
-0.0921631
-0.0918579
-0.0915527
-0.0912476
-0.0909424
-0.090332
-0.0909424
-0.090332
-0.0912476
-0.0900269
-0.090332
-0.090332
-0.090332
-0.0906372
-0.0909424
-0.0909424
-0.0912476
-0.0915527
-0.0912476
-0.0918579
-0.0924683
-0.0924683
-0.0927734
-0.0933838
-0.0939941
-0.0942993
-0.0952148
-0.0958252
-0.0970459
-0.0976562
-0.0976562
-0.0991821
-0.0997925
-0.100403
-0.101624
-0.102234
-0.102539
-0.104065
-0.10498
-0.105286
-0.106201
-0.107422
-0.108032
-0.109558
-0.110168
-0.111694
-0.112
-0.113525
-0.114746
-0.115967
-0.116577
-0.117798
-0.119324
-0.120239
-0.121765
-0.122986
-0.123596
-0.125732
-0.126038
-0.128174
-0.128479
-0.1297
-0.131226
-0.132446
-0.133667
-0.134277
-0.137024
-0.137024
-0.138245
-0.139771
-0.140381
-0.141907
-0.142822
-0.143127
-0.144348
-0.145569
-0.14679
-0.1474
-0.147705
-0.148926
-0.149231
-0.149841
-0.151062
-0.151672
-0.151367
-0.153503
-0.153198
-0.154114
-0.155029
-0.154114
-0.155029
-0.154724
-0.154724
-0.15564
-0.15564
-0.155945
-0.15564
-0.155945
-0.154419
-0.153809
-0.153809
-0.152893
-0.152283
-0.151672
-0.149536
-0.148315
-0.146179
-0.144348
-0.142517
-0.139465
-0.135498
-0.133362
-0.129089
-0.125122
-0.12146
-0.115051
-0.109558
-0.10376
-0.0961304
-0.0891113
-0.0808716
-0.0723267
-0.0631714
-0.0524902
-0.0421143
-0.0302124
-0.0177002
-0.00366211
0.0100708
0.0253296
0.0415039
0.0588989
0.0769043
0.0958252
0.116577
0.137329
0.160522
0.183411
0.207825
0.233765
0.26001
0.287476
0.315247
0.344849
0.375061
0.405884
0.438232
0.470581
0.50354
0.537109
0.571594
0.606689
0.642395
0.678406
0.715027
0.750427
0.786743
0.823975
0.860291
0.897522
0.933838
0.970154
1.00647
1.04309
1.07819
1.11267
1.14777
1.18256
1.21643
1.24939
1.28235
1.31409
1.34552
1.37604
1.40686
1.43524
1.46393
1.49109
1.51886
1.5451
1.56921
1.59454
1.61774
1.64124
1.66229
1.68335
1.70349
1.72333
1.74133
1.75934
1.77551
1.79138
1.80725
1.8219
1.83624
1.84814
1.86096
1.87195
1.88324
1.8927
1.90277
1.91132
1.91864
1.92657
1.93298
1.93848
1.94458
1.94855
1.95251
1.95648
1.95953
1.96228
1.96381
1.96503
1.96716
1.96716
1.96716
1.96747
1.96625
1.96503
1.96381
1.96198
1.96045
1.9574
1.95404
1.9516
1.94733
1.94336
1.93939
1.93573
1.92993
1.92566
1.91986
1.91467
1.90948
1.90369
1.89758
1.89087
1.88416
1.87836
1.87195
1.86462
1.8576
1.84998
1.84265
1.83502
1.82678
1.81915
1.81152
1.80298
1.79504
1.78619
1.77856
1.77002
1.76178
1.75293
1.74469
1.73615
1.72729
1.71844
1.70898
1.70135
1.69189
1.68365
1.67419
1.66565
1.6568
1.64734
1.6391
1.62994
1.62048
1.61255
1.6037
1.59485
1.58569
1.57715
1.5686
1.55945
1.54999
1.54236
1.5329
1.52496
1.51611
1.50726
1.49902
1.49017
1.48254
1.474
1.46606
1.45752
1.44958
1.44226
1.43402
1.42639
1.41846
1.41083
1.40289
1.39526
1.38824
1.38092
1.3739
1.36658
1.36017
1.35254
1.34552
1.33911
1.33179
1.32538
1.31836
1.31134
1.30554
1.29974
1.29242
1.28693
1.28082
1.27472
1.26862
1.26343
1.25763
1.25244
1.24634
1.24084
1.23505
1.22955
1.22467
1.21918
1.21338
1.20789
1.203
1.19629
1.19171
1.18591
1.18073
1.17523
1.16913
1.16394
1.15784
1.15295
1.14746
1.14197
1.13586
1.12976
1.12366
1.11725
1.11176
1.10565
1.09924
1.09253
1.08612
1.07971
1.07269
1.06537
1.05804
1.05133
1.0434
1.03638
1.02875
1.02112
1.01257
1.00372
0.997009
0.987854
0.979004
0.97168
0.962219
0.953064
0.943909
0.934448
0.925903
0.916748
0.906372
0.896912
0.887756
0.877686
0.86853
0.857544
0.848083
0.838318
0.828857
0.819092
0.808716
0.800171
0.7901
0.780334
0.770569
0.761719
0.751648
0.742493
0.733948
0.724487
0.715637
0.707092
0.698242
0.690308
0.681763
0.674133
0.666504
0.659485
0.651855
0.644531
0.637512
0.631714
0.625
0.618591
0.612793
0.607605
0.600891
0.596619
0.591736
0.587158
0.582581
0.578613
0.574646
0.570984
0.567932
0.564575
0.562744
0.560303
0.557861
0.55542
0.555115
0.552979
0.552368
0.551453
0.549927
0.550232
0.550232
0.549622
0.549927
0.550232
0.550842
0.552063
0.552673
0.553894
0.55481
0.557251
0.558777
0.560303
0.562744
0.564575
0.565796
0.568848
0.570679
0.57373
0.575867
0.578613
0.581665
0.583496
0.587463
0.59021
0.592346
0.596313
0.59906
0.601807
0.604553
0.607605
0.610657
0.613098
0.61554
0.618591
0.620728
0.62439
0.627441
0.629883
0.632019
0.63385
0.636902
0.639648
0.64209
0.644531
0.646667
0.647888
0.65033
0.65155
0.653381
0.655518
0.656128
0.657349
0.658569
0.6604
0.661011
0.662537
0.662842
0.662842
0.663452
0.664368
0.664062
0.664062
0.662842
0.663757
0.663452
0.662842
0.661621
0.661316
0.6604
0.65918
0.657654
0.656128
0.654602
0.654297
0.651245
0.648499
0.646973
0.644836
0.641785
0.639038
0.636292
0.632935
0.630188
0.627136
0.623474
0.619507
0.616455
0.612183
0.608215
0.603638
0.59967
0.595703
0.591125
0.585022
0.58136
0.576477
0.572205
0.567017
0.561523
0.55603
0.549927
0.544739
0.539551
0.534058
0.528259
0.522156
0.516357
0.510254
0.504761
0.498962
0.493164
0.486755
0.480042
0.473633
0.46814
0.462036
0.456238
0.449219
0.4422
0.435486
0.429688
0.422668
0.415955
0.409546
0.402832
0.396118
0.389099
0.38269
0.376587
0.369263
0.362854
0.356445
0.349426
0.343018
0.335693
0.328979
0.322266
0.315857
0.309448
0.302734
0.296326
0.289307
0.283203
0.275879
0.26947
0.262756
0.256042
0.249329
0.242615
0.236206
0.229797
0.222778
0.21637
0.210571
0.202942
0.196533
0.19104
0.184021
0.177917
0.171204
0.165405
0.159302
0.153198
0.145874
0.140381
0.134888
0.127869
0.122681
0.117188
0.110779
0.105591
0.0991821
0.093689
0.088501
0.0830078
0.0784302
0.0726318
0.0674438
0.0613403
0.0558472
0.050354
0.0454712
0.0402832
0.0350952
0.0299072
0.0259399
0.0201416
0.0158691
0.0106812
0.00579834
0.00213623
-0.00183105
-0.00579834
-0.010376
-0.0149536
-0.0186157
-0.0234985
-0.0274658
-0.0311279
-0.0350952
-0.0390625
-0.0424194
-0.0460815
-0.0494385
-0.0531006
-0.0570679
-0.0598145
-0.062561
-0.0662231
-0.0695801
-0.0723267
-0.0744629
-0.0775146
-0.0811768
-0.0839233
-0.0863647
-0.0888062
-0.0927734
-0.0946045
-0.0976562
-0.0991821
-0.102539
-0.104675
-0.106506
-0.108337
-0.110168
-0.112305
-0.114746
-0.116272
-0.118408
-0.119934
-0.122375
-0.123596
-0.124817
-0.126648
-0.127869
-0.129089
-0.131226
-0.131226
-0.133667
-0.134583
-0.136108
-0.136414
-0.13855
-0.138855
-0.140076
-0.141602
-0.141907
-0.142517
-0.143433
-0.143738
-0.144958
-0.145569
-0.146179
-0.146179
-0.1474
-0.14801
-0.14801
-0.14801
-0.148621
-0.148926
-0.149536
-0.148926
-0.149841
-0.150452
-0.149841
-0.149841
-0.149841
-0.150757
-0.149841
-0.150452
-0.150757
-0.150146
-0.150146
-0.149841
-0.149536
-0.149841
-0.149536
-0.149231
-0.148926
-0.148621
-0.148621
-0.1474
-0.148315
-0.14679
-0.14679
-0.146179
-0.14679
-0.144958
-0.144653
-0.144043
-0.143127
-0.142517
-0.141296
-0.140686
-0.139771
-0.139465
-0.138855
-0.138245
-0.137329
-0.136108
-0.135498
-0.134583
-0.134277
-0.133057
-0.132141
-0.131226
-0.130615
-0.129395
-0.128174
-0.127563
-0.125427
-0.125427
-0.124207
-0.122986
-0.121765
-0.120544
-0.118713
-0.118713
-0.116882
-0.115967
-0.115051
-0.114441
-0.11261
-0.111694
-0.110168
-0.108643
-0.108032
-0.107422
-0.10498
-0.104065
-0.102844
-0.101929
-0.0997925
-0.098877
-0.0976562
-0.0961304
-0.0952148
-0.093689
-0.0927734
-0.0906372
-0.0900269
-0.0891113
-0.0878906
-0.0872803
-0.0854492
-0.0839233
-0.0839233
-0.0827026
-0.0820923
-0.0799561
-0.0796509
-0.0790405
-0.078125
-0.0765991
-0.0756836
-0.0741577
-0.0741577
-0.072937
-0.0723267
-0.0726318
-0.0714111
-0.0708008
-0.0695801
-0.0692749
-0.0689697
-0.0680542
-0.0671387
-0.0671387
-0.0662231
-0.065918
-0.0646973
-0.0643921
-0.0646973
-0.0628662
-0.0628662
-0.062561
-0.0619507
-0.0613403
-0.0610352
-0.06073
-0.0610352
-0.0592041
-0.0601196
-0.0585938
-0.0585938
-0.0588989
-0.0582886
-0.0579834
-0.0576782
-0.0570679
-0.0576782
-0.0570679
-0.057373
-0.057373
-0.057373
-0.057373
-0.0576782
-0.0579834
-0.0585938
-0.0588989
-0.0592041
-0.0601196
-0.0598145
-0.0604248
-0.0616455
-0.0616455
-0.0616455
-0.0619507
-0.0628662
-0.0628662
-0.0634766
-0.0634766
-0.0653076
-0.0653076
-0.065918
-0.0668335
-0.0674438
-0.0686646
-0.0692749
-0.0698853
-0.0714111
-0.0714111
-0.0723267
-0.0741577
-0.0747681
-0.0747681
-0.0756836
-0.0765991
-0.0778198
-0.0787354
-0.0793457
-0.0805664
-0.0805664
-0.0817871
-0.0820923
-0.083313
-0.0842285
-0.0854492
-0.0860596
-0.0872803
-0.0881958
-0.0888062
-0.0894165
-0.0906372
-0.0909424
-0.0912476
-0.0924683
-0.0927734
-0.0930786
-0.093689
-0.0939941
-0.0939941
-0.0942993
-0.0942993
-0.0946045
-0.0939941
-0.093689
-0.0933838
-0.0927734
-0.0918579
-0.0918579
-0.090332
-0.0894165
-0.0866699
-0.0854492
-0.0827026
-0.0811768
-0.0769043
-0.0741577
-0.0701904
-0.065918
-0.06073
-0.0552368
-0.0488281
-0.0424194
-0.0350952
-0.0268555
-0.0183105
-0.0088501
0.00152588
0.0128174
0.0250244
0.0378418
0.0515747
0.065918
0.0805664
0.0970459
0.115051
0.134277
0.154419
0.175171
0.198059
0.221252
0.244446
0.270996
0.296936
0.324707
0.353088
0.381165
0.412903
0.44342
0.476074
0.509033
0.542603
0.577087
0.611267
0.647583
0.683899
0.71991
0.757446
0.794983
0.831909
0.869446
0.907593
0.945129
0.982971
1.02051
1.05804
1.09528
1.13251
1.16882
1.20544
1.24176
1.27655
1.31134
1.34552
1.3797
1.41205
1.44409
1.47644
1.50665
1.53595
1.56586
1.59363
1.62201
1.64795
1.67358
1.69891
1.72241
1.74561
1.76819
1.78955
1.80939
1.82983
1.84814
1.86676
1.88385
1.90063
1.91559
1.92963
1.94458
1.95709
1.96991
1.98181
1.9928
2.00378
2.01263
2.02148
2.02942
2.03766
2.04437
2.05139
2.05658
2.06177
2.06635
2.07031
2.07367
2.07672
2.07947
2.0813
2.08313
2.08435
2.08466
2.08588
2.08466
2.08496
2.08374
2.0816
2.08008
2.07825
2.07581
2.07306
2.07092
2.06635
2.06299
2.05902
2.05566
2.052
2.04681
2.04224
2.03735
2.03217
2.02728
2.02179
2.01508
2.00958
2.00409
1.99768
1.99097
1.98486
1.97784
1.97144
1.96533
1.95831
1.9516
1.94427
1.93634
1.92993
1.922
1.91467
1.90735
1.89972
1.8927
1.88507
1.87744
1.8692
1.86066
1.85333
1.8457
1.83807
1.82983
1.8222
1.81366
1.80542
1.79871
1.78986
1.78314
1.77429
1.76666
1.75873
1.7514
1.74347
1.73553
1.7276
1.72089
1.71295
1.70532
1.69678
1.68976
1.68213
1.67542
1.66748
1.66107
1.65375
1.64673
1.6391
1.63116
1.62476
1.61865
1.61133
1.60522
1.59882
1.59271
1.58569
1.57959
1.57318
1.56738
1.56097
1.55487
1.54907
1.54327
1.53687
1.53107
1.52649
1.52039
1.51489
1.5094
1.50482
1.50055
1.49506
1.48987
1.48499
1.4801
1.47522
1.47064
1.46515
1.46027
1.45599
1.45111
1.44684
1.44226
1.43829
1.43372
1.42914
1.42456
1.42059
1.41632
1.41205
1.40778
1.40381
1.39862
1.39496
1.39069
1.3858
1.38184
1.37665
1.3736
1.36871
1.36383
1.36017
1.35437
1.3501
1.34521
1.34094
1.33667
1.33087
1.3269
1.32141
1.31653
1.31073
1.30585
1.30005
1.29517
1.28937
1.28479
1.27869
1.27197
1.26556
1.25854
1.25275
1.24634
1.23993
1.23291
1.22528
1.21796
1.21063
1.203
1.19537
1.18683
1.17889
1.17096
1.16333
1.15448
1.14563
1.13647
1.12762
1.11908
1.10901
1.09924
1.091
1.08032
1.07117
1.06079
1.05133
1.04156
1.03119
1.02173
1.01074
1.00128
0.990601
0.98053
0.970459
0.960388
0.949402
0.939026
0.92926
0.919189
0.909119
0.898743
0.888672
0.878906
0.86853
0.859375
0.850525
0.840454
0.830688
0.822144
0.812683
0.804749
0.794983
0.787659
0.778503
0.771484
0.76355
0.75592
0.748596
0.741272
0.734253
0.727844
0.721436
0.715332
0.708923
0.703125
0.696411
0.691223
0.686646
0.680847
0.675964
0.671082
0.667114
0.663452
0.658264
0.655212
0.65094
0.648193
0.644531
0.641479
0.639038
0.635681
0.63324
0.630493
0.628662
0.626221
0.624084
0.622559
0.620728
0.618896
0.617065
0.61554
0.613708
0.613098
0.612488
0.611572
0.610352
0.609436
0.608215
0.60791
0.606995
0.606079
0.605774
0.604858
0.604858
0.603943
0.603027
0.603333
0.602417
0.602112
0.602112
0.600586
0.600281
0.600586
0.600281
0.59906
0.599365
0.598755
0.597839
0.597534
0.596619
0.595703
0.595093
0.594482
0.593872
0.593872
0.592041
0.591736
0.591125
0.5896
0.589294
0.588074
0.586548
0.585022
0.584412
0.582886
0.58136
0.580444
0.577698
0.577087
0.575256
0.572815
0.571594
0.568237
0.566711
0.563965
0.561829
0.559692
0.55603
0.554199
0.551758
0.548706
0.546265
0.542603
0.539551
0.536194
0.533447
0.52948
0.525208
0.522156
0.518188
0.513916
0.510254
0.506592
0.502014
0.498352
0.493774
0.488892
0.484619
0.479126
0.475159
0.469971
0.466614
0.461731
0.456848
0.451355
0.446167
0.440979
0.436096
0.430298
0.42511
0.419922
0.413818
0.40802
0.402222
0.396423
0.390625
0.384827
0.379028
0.37262
0.366821
0.361023
0.354309
0.348206
0.343018
0.335999
0.32959
0.323181
0.317078
0.311279
0.304871
0.298767
0.292053
0.285034
0.278625
0.272217
0.265503
0.259094
0.25177
0.246582
0.239868
0.233154
0.22583
0.220642
0.212708
0.205994
0.200195
0.193176
0.186462
0.180054
0.17334
0.166626
0.159912
0.153503
0.146484
0.139465
0.133057
0.127563
0.119934
0.114136
0.107727
0.101318
0.0949097
0.088501
0.0817871
0.0765991
0.0701904
0.0637817
0.0576782
0.0509644
0.0454712
0.0390625
0.032959
0.0274658
0.0216675
0.0158691
0.00976562
0.00488281
-0.000915527
-0.00640869
-0.0119019
-0.0177002
-0.0234985
-0.0289917
-0.0338745
-0.0390625
-0.0442505
-0.0491333
-0.0546265
-0.0595093
-0.0650024
-0.0698853
-0.0744629
-0.0793457
-0.0836182
-0.088501
-0.0933838
-0.0976562
-0.102844
-0.107422
-0.110779
-0.114746
-0.119324
-0.123596
-0.127563
-0.131226
-0.134888
-0.138855
-0.142822
-0.145874
-0.149536
-0.154114
-0.15625
-0.160522
-0.162659
-0.166626
-0.169678
-0.172424
-0.175476
-0.179443
-0.18158
-0.184021
-0.187073
-0.189514
-0.192261
-0.194702
-0.197754
-0.199585
-0.202942
-0.205078
-0.207214
-0.209351
-0.212097
-0.213623
-0.21698
-0.218506
-0.220642
-0.222778
-0.224915
-0.22583
-0.227356
-0.229797
-0.231323
-0.232544
-0.233765
-0.236511
-0.238037
-0.238953
-0.239563
-0.240479
-0.24231
-0.24353
-0.244446
-0.246277
-0.246582
-0.247498
-0.248718
-0.249939
-0.249939
-0.25116
-0.252075
-0.252686
-0.253601
-0.254211
-0.255127
-0.256348
-0.256042
-0.256958
-0.257568
-0.258484
-0.258789
-0.258789
-0.259094
-0.259705
-0.26123
-0.26123
-0.261841
-0.261841
-0.262756
-0.262756
-0.263367
-0.263367
-0.264282
-0.264893
-0.264893
-0.265808
-0.265503
-0.266113
-0.266418
-0.266418
-0.266724
-0.266724
-0.266724
-0.266724
-0.267029
-0.266418
-0.267639
-0.267334
-0.267334
-0.266724
-0.266724
-0.266724
-0.266418
-0.266113
-0.266418
-0.265503
-0.265808
-0.265198
-0.265198
-0.265198
-0.264893
-0.264587
-0.263977
-0.264282
-0.264282
-0.263672
-0.263367
-0.262756
-0.263367
-0.262146
-0.260925
-0.260925
-0.26062
-0.260315
-0.259705
-0.259399
-0.257874
-0.258179
-0.257874
-0.256958
-0.257263
-0.256653
-0.256653
-0.255432
-0.256653
-0.255432
-0.255127
-0.253906
-0.253906
-0.252991
-0.253906
-0.252991
-0.252686
-0.252686
-0.252075
-0.25116
-0.250549
-0.250854
-0.250244
-0.249634
-0.248413
-0.248718
-0.248108
-0.248413
-0.247803
-0.247192
-0.246887
-0.246277
-0.246277
-0.245667
-0.245667
-0.243835
-0.24353
-0.24353
-0.243835
-0.24292
-0.242004
-0.241699
-0.241699
-0.241089
-0.240479
-0.240173
-0.239868
-0.239258
-0.238647
-0.238647
-0.237732
-0.237122
-0.237122
-0.236816
-0.235596
-0.235291
-0.234985
-0.234375
-0.233765
-0.23407
-0.232544
-0.232544
-0.231934
-0.231628
-0.231323
-0.231323
-0.230713
-0.230408
-0.230103
-0.229187
-0.228577
-0.228577
-0.227966
-0.227051
-0.227356
-0.227356
-0.227051
-0.22644
-0.225525
-0.225525
-0.22522
-0.224609
-0.223999
-0.223389
-0.223389
-0.223694
-0.223083
-0.223083
-0.223083
-0.222778
-0.223083
-0.221863
-0.222168
-0.221863
-0.221252
-0.221863
-0.221863
-0.220947
-0.221252
-0.221558
-0.221863
-0.220642
-0.221558
-0.221558
-0.221558
-0.222473
-0.221558
-0.221863
-0.221863
-0.221863
-0.223083
-0.223083
-0.223083
-0.223083
-0.222778
-0.223389
-0.223389
-0.223389
-0.223694
-0.224304
-0.224304
-0.224304
-0.224915
-0.224609
-0.224915
-0.224915
-0.22583
-0.22644
-0.22644
-0.226746
-0.228271
-0.227661
-0.228271
-0.229492
-0.228577
-0.229492
-0.230408
-0.231323
-0.231018
-0.231323
-0.232849
-0.232849
-0.23407
-0.234375
-0.234985
-0.235901
-0.235901
-0.237122
-0.237427
-0.237427
-0.238037
-0.238953
-0.239563
-0.239868
-0.240173
-0.240173
-0.240479
-0.241089
-0.241089
-0.242615
-0.242004
-0.243225
-0.24292
-0.243225
-0.243835
-0.244446
-0.244141
-0.245361
-0.245056
-0.245056
-0.245667
-0.245667
-0.245667
-0.244751
-0.244751
-0.245056
-0.244446
-0.24353
-0.243835
-0.24292
-0.24292
-0.24231
-0.24231
-0.240784
-0.239258
-0.238037
-0.236816
-0.236206
-0.234375
-0.232239
-0.230408
-0.227661
-0.224915
-0.221252
-0.217896
-0.214233
-0.209656
-0.204468
-0.200195
-0.194092
-0.187378
-0.180969
-0.173645
-0.16449
-0.15686
-0.146484
-0.136414
-0.124512
-0.112915
-0.0997925
-0.0860596
-0.0704956
-0.0537109
-0.0360107
-0.0183105
0.000610352
0.0210571
0.0436401
0.0650024
0.0888062
0.113525
0.139771
0.166626
0.195923
0.22522
0.256042
0.287476
0.320435
0.354004
0.388794
0.425415
0.461121
0.498047
0.536194
0.574646
0.614319
0.654297
0.694275
0.734253
0.775146
0.815735
0.856628
0.897217
0.938416
0.979919
1.0202
1.06079
1.10077
1.13953
1.17981
1.21826
1.25671
1.29364
1.33087
1.36749
1.40289
1.43738
1.47156
1.50452
1.53687
1.56921
1.59882
1.62933
1.65771
1.68579
1.71173
1.73859
1.76331
1.78772
1.81061
1.8335
1.85364
1.87469
1.89423
1.91284
1.93085
1.94763
1.96381
1.97876
1.9931
2.00714
2.02026
2.03217
2.04285
2.05292
2.06238
2.07123
2.07947
2.0871
2.09351
2.09961
2.10571
2.11151
2.11548
2.12006
2.12341
2.12555
2.12952
2.13104
2.13257
2.13287
2.1344
2.13348
2.13379
2.1344
2.13287
2.13135
2.12921
2.12677
2.12402
2.12189
2.11914
2.11609
2.11212
2.10815
2.10449
2.10052
2.09625
2.09106
2.08649
2.08221
2.07703
2.07214
2.06635
2.06116
2.05475
2.04895
2.04437
2.03735
2.03186
2.02576
2.01965
2.01355
2.00653
2.00104
1.99402
1.98822
1.98151
1.97449
1.96808
1.96075
1.95435
1.94794
1.94153
1.9339
1.92719
1.92017
1.91345
1.90613
1.89972
1.89331
1.88629
1.87927
1.87195
1.86523
1.85852
1.85181
1.84509
1.83807
1.83197
1.82465
1.81824
1.81152
1.8042
1.7984
1.79138
1.78436
1.77856
1.77246
1.76575
1.75964
1.75385
1.74774
1.74103
1.73615
1.72913
1.72516
1.71844
1.71295
1.70685
1.70197
1.69556
1.69067
1.68518
1.67969
1.6745
1.66901
1.66351
1.65863
1.65375
1.64886
1.64398
1.6394
1.63422
1.62964
1.62537
1.6214
1.61621
1.61163
1.60767
1.6037
1.59882
1.59363
1.58936
1.586
1.58142
1.57745
1.57288
1.56891
1.56464
1.56006
1.55609
1.55212
1.54816
1.54388
1.54053
1.53625
1.53229
1.52832
1.52435
1.51947
1.51672
1.51276
1.50818
1.50452
1.50024
1.49689
1.49292
1.48804
1.48407
1.4801
1.47522
1.47156
1.46637
1.4624
1.45813
1.45294
1.44897
1.44379
1.4389
1.43372
1.42944
1.42395
1.41815
1.41296
1.40747
1.40228
1.39679
1.39099
1.38489
1.37909
1.3739
1.36719
1.36108
1.35345
1.34674
1.34033
1.33331
1.32599
1.31958
1.31226
1.30402
1.29639
1.28784
1.28021
1.27197
1.26312
1.25519
1.24603
1.23749
1.22833
1.21918
1.20972
1.19995
1.19019
1.18073
1.17126
1.16119
1.15082
1.14105
1.13098
1.1203
1.11115
1.10016
1.08978
1.07971
1.06934
1.05896
1.04797
1.0376
1.02692
1.01654
1.00677
0.996399
0.986328
0.975037
0.964966
0.954895
0.945129
0.935669
0.925598
0.916138
0.906677
0.897827
0.888672
0.879211
0.870361
0.861206
0.853577
0.844421
0.836182
0.828247
0.820618
0.812073
0.804443
0.797119
0.7901
0.783081
0.775452
0.768738
0.762329
0.75531
0.749817
0.743103
0.737305
0.731506
0.725403
0.72052
0.715332
0.710449
0.704956
0.700378
0.695801
0.690918
0.686646
0.683289
0.679016
0.674744
0.670471
0.667114
0.664673
0.661316
0.657654
0.654602
0.652161
0.649109
0.646667
0.643311
0.641785
0.638123
0.637207
0.63446
0.631104
0.629883
0.627747
0.626526
0.624695
0.622253
0.621033
0.619202
0.617371
0.61615
0.614014
0.612183
0.611267
0.609741
0.60791
0.606689
0.604858
0.603638
0.601501
0.600891
0.59845
0.596619
0.595398
0.593872
0.591125
0.59021
0.587463
0.586243
0.584412
0.582275
0.578918
0.578003
0.575562
0.573425
0.570984
0.568542
0.565796
0.56366
0.561218
0.558472
0.55603
0.553589
0.549927
0.547791
0.544434
0.541382
0.539246
0.534363
0.531921
0.528259
0.524902
0.52124
0.519104
0.514526
0.511169
0.507812
0.503845
0.499268
0.496521
0.491943
0.488892
0.484314
0.480347
0.476074
0.472107
0.467529
0.463562
0.458984
0.454712
0.450439
0.445557
0.440979
0.435486
0.431213
0.426636
0.421143
0.415955
0.410461
0.405579
0.400696
0.395203
0.389404
0.383911
0.378723
0.373535
0.367737
0.362549
0.35675
0.351257
0.344543
0.338745
0.332947
0.327148
0.32074
0.314331
0.309143
0.30304
0.296631
0.290833
0.283813
0.27771
0.271301
0.265198
0.258789
0.252686
0.246277
0.240479
0.234985
0.227966
0.220947
0.215149
0.20813
0.202332
0.195618
0.188904
0.183411
0.176697
0.169678
0.163269
0.156555
0.150452
0.144653
0.137634
0.132446
0.125427
0.119324
0.11322
0.107422
0.101013
0.0939941
0.0888062
0.0823975
0.0775146
0.0717163
0.0653076
0.0592041
0.0534058
0.0479126
0.0418091
0.0357056
0.0311279
0.0247192
0.0186157
0.0140381
0.00854492
0.00274658
-0.00213623
-0.00793457
-0.0131226
-0.0189209
-0.0238037
-0.0289917
-0.0338745
-0.039978
-0.0448608
-0.0494385
-0.0549316
-0.0601196
-0.0646973
-0.0695801
-0.0741577
-0.0793457
-0.0830078
-0.0878906
-0.0927734
-0.0973511
-0.101318
-0.105591
-0.109863
-0.114441
-0.118408
-0.121765
-0.126343
-0.131531
-0.134277
-0.138855
-0.141907
-0.145874
-0.148926
-0.153809
-0.15686
-0.159912
-0.162964
-0.166626
-0.169983
-0.173035
-0.177307
-0.180359
-0.183105
-0.186157
-0.188904
-0.192566
-0.195618
-0.197754
-0.201111
-0.203552
-0.206909
-0.209351
-0.211792
-0.213928
-0.217285
-0.219116
-0.221558
-0.224609
-0.226135
-0.228882
-0.231323
-0.233154
-0.235901
-0.237732
-0.240784
-0.24231
-0.244141
-0.246582
-0.249023
-0.249634
-0.25177
-0.253296
-0.255432
-0.257263
-0.258179
-0.26001
-0.261841
-0.263062
-0.264587
-0.265198
-0.267029
-0.267639
-0.269775
-0.270996
-0.272827
-0.273743
-0.274353
-0.276184
-0.276794
-0.27771
-0.278931
-0.279846
-0.280457
-0.281677
-0.282898
-0.282898
-0.285034
-0.284424
-0.285645
-0.28595
-0.28656
-0.287781
-0.288391
-0.288696
-0.289001
-0.289917
-0.290222
-0.290833
-0.291138
-0.291443
-0.292053
-0.292053
-0.293579
-0.292664
-0.292969
-0.293579
-0.293884
-0.293884
-0.293884
-0.294189
-0.294189
-0.2948
-0.295105
-0.2948
-0.295105
-0.2948
-0.296326
-0.29541
-0.29541
-0.295715
-0.295105
-0.296021
-0.295715
-0.296021
-0.296021
-0.29541
-0.295715
-0.295715
-0.296021
-0.295105
-0.2948
-0.295105
-0.295105
-0.294495
-0.294495
-0.294189
-0.295105
-0.294189
-0.294189
-0.294495
-0.2948
-0.2948
-0.295105
-0.294189
-0.294495
-0.294495
-0.293884
-0.294189
-0.293884
-0.292969
-0.292664
-0.293274
-0.292053
-0.291138
-0.291748
-0.291748
-0.291748
-0.291748
-0.291443
-0.291138
-0.290833
-0.290222
-0.289612
-0.290222
-0.289917
-0.289917
-0.289612
-0.289001
-0.288696
-0.288696
-0.288696
-0.288086
-0.28717
-0.28717
-0.28717
-0.28656
-0.286255
-0.28595
-0.285645
-0.286255
-0.285645
-0.285034
-0.285339
-0.284424
-0.284119
-0.284119
-0.283508
-0.282898
-0.282898
-0.281982
-0.281677
-0.281677
-0.281372
-0.280762
-0.281067
-0.280762
-0.279541
-0.280151
-0.279236
-0.279541
-0.278931
-0.279236
-0.27832
-0.278931
-0.27832
-0.277405
-0.2771
-0.276489
-0.276489
-0.276489
-0.275879
-0.275269
-0.275269
-0.274963
-0.274658
-0.274353
-0.274048
-0.273743
-0.273132
-0.273743
-0.272827
-0.273743
-0.273132
-0.272522
-0.273132
-0.272217
-0.271912
-0.271301
-0.270691
-0.271301
-0.270691
-0.270386
-0.270081
-0.269775
-0.269775
-0.270386
-0.270386
-0.269775
-0.26947
-0.270081
-0.269775
-0.26947
-0.269165
-0.26825
-0.269165
-0.26825
-0.267944
-0.267334
-0.266113
-0.266418
-0.265808
-0.265808
-0.264893
-0.264282
-0.264282
-0.263672
-0.263672
-0.263367
-0.263367
-0.262451
-0.261841
-0.262756
-0.262146
-0.26123
-0.260925
-0.260315
-0.259399
-0.259705
-0.259094
-0.258789
-0.258179
-0.257874
-0.257568
-0.257568
-0.257874
-0.256958
-0.256042
-0.256348
-0.256042
-0.255737
-0.255127
-0.254211
-0.254822
-0.253906
-0.253296
-0.25238
-0.25177
-0.25238
-0.25177
-0.25116
-0.251465
-0.250549
-0.249939
-0.249634
-0.249329
-0.249634
-0.248413
-0.249023
-0.248108
-0.248413
-0.247803
-0.248108
-0.247192
-0.247192
-0.246277
-0.247192
-0.247192
-0.246277
-0.246582
-0.246582
-0.245361
-0.245361
-0.245972
-0.245056
-0.244751
-0.245056
-0.244141
-0.244446
-0.244751
-0.244141
-0.243835
-0.244141
-0.244751
-0.244141
-0.244141
-0.243835
-0.243835
-0.244446
-0.243835
-0.243835
-0.244446
-0.243835
-0.243225
-0.243835
-0.24353
-0.243225
-0.24353
-0.244751
-0.243835
-0.244141
-0.244446
-0.244141
-0.244141
-0.243835
-0.243835
-0.24353
-0.243835
-0.24292
-0.242615
-0.24292
-0.242004
-0.241394
-0.241394
-0.241699
-0.240784
-0.240479
-0.239563
-0.240173
-0.239563
-0.238953
-0.237732
-0.237732
-0.237122
-0.235901
-0.234985
-0.233154
-0.232544
-0.231628
-0.230408
-0.228577
-0.22644
-0.224609
-0.222473
-0.220642
-0.21759
-0.216064
-0.212708
-0.209961
-0.206604
-0.202332
-0.197754
-0.193481
-0.189514
-0.18219
-0.176697
-0.168762
-0.161438
-0.154114
-0.145569
-0.136108
-0.125732
-0.114441
-0.102539
-0.090332
-0.0762939
-0.0619507
-0.0476074
-0.0302124
-0.0125122
0.00549316
0.0253296
0.0460815
0.0680542
0.0900269
0.114746
0.140076
0.166931
0.194397
0.222473
0.252075
0.283203
0.315247
0.347595
0.38208
0.417175
0.453186
0.490112
0.529175
0.566711
0.605469
0.646057
0.68573
0.726929
0.767822
0.810242
0.851746
0.89386
0.935974
0.977783
1.0199
1.06262
1.10382
1.14502
1.18622
1.22711
1.26709
1.30615
1.34521
1.38458
1.42181
1.45813
1.49536
1.53015
1.56494
1.59912
1.63177
1.66351
1.69464
1.72485
1.75415
1.78223
1.80939
1.83502
1.86035
1.88385
1.90735
1.92902
1.95099
1.97144
1.99005
2.00867
2.02698
2.04315
2.05872
2.07397
2.08801
2.10114
2.11365
2.12524
2.13684
2.1463
2.15424
2.16461
2.17194
2.17896
2.18567
2.19086
2.19604
2.20062
2.20367
2.20795
2.21222
2.21405
2.21619
2.2171
2.21832
2.21924
2.21863
2.21832
2.21771
2.21649
2.21466
2.21313
2.21069
2.20764
2.2049
2.20093
2.19757
2.19421
2.18933
2.18597
2.18109
2.1759
2.17163
2.16705
2.16125
2.15576
2.15057
2.14447
2.13898
2.13348
2.12708
2.12067
2.11456
2.10754
2.10114
2.09412
2.0874
2.08038
2.07367
2.06665
2.05994
2.05261
2.04529
2.03796
2.03094
2.02454
2.0166
2.00989
2.00256
1.99524
1.98792
1.9809
1.97357
1.96655
1.95831
1.95221
1.94458
1.93726
1.92932
1.92261
1.91528
1.90796
1.90094
1.89392
1.88751
1.87988
1.87256
1.86554
1.85883
1.85242
1.84479
1.83716
1.83136
1.82495
1.81732
1.81091
1.8045
1.7981
1.79108
1.78467
1.77826
1.77307
1.76666
1.75995
1.75385
1.74835
1.74286
1.73615
1.73065
1.72455
1.71997
1.71356
1.70868
1.7038
1.69708
1.6925
1.68671
1.68121
1.67694
1.67206
1.66656
1.66199
1.6568
1.65253
1.64764
1.64276
1.63879
1.63361
1.62964
1.62476
1.62048
1.61591
1.61163
1.60858
1.604
1.59973
1.59607
1.59119
1.58783
1.58295
1.57898
1.57532
1.57074
1.56738
1.56311
1.55853
1.55487
1.5509
1.54602
1.54236
1.53839
1.53381
1.52985
1.52496
1.5213
1.51642
1.51215
1.50787
1.50299
1.49902
1.49445
1.48865
1.48529
1.4798
1.4743
1.46973
1.46362
1.45874
1.45294
1.44775
1.44135
1.43555
1.43005
1.42395
1.41724
1.41144
1.40472
1.39801
1.3916
1.38397
1.37695
1.36963
1.36261
1.35437
1.34613
1.33942
1.33057
1.32324
1.3147
1.30615
1.29791
1.28937
1.2796
1.27014
1.2616
1.25183
1.24237
1.23199
1.22223
1.21216
1.2027
1.19171
1.18225
1.17188
1.16211
1.15112
1.14105
1.13007
1.11938
1.10931
1.09924
1.08795
1.07819
1.06628
1.05621
1.04553
1.03516
1.02509
1.0144
1.00433
0.994568
0.984802
0.974426
0.964661
0.954285
0.946045
0.936584
0.925903
0.918884
0.910034
0.901184
0.892334
0.884094
0.874939
0.867004
0.85968
0.852661
0.843811
0.837097
0.829773
0.823059
0.81665
0.809326
0.803223
0.797729
0.791321
0.784607
0.779724
0.774841
0.769348
0.764771
0.759888
0.755005
0.750427
0.74646
0.741577
0.73822
0.735168
0.730896
0.727234
0.723572
0.72113
0.717468
0.714722
0.71228
0.709229
0.707092
0.704346
0.702515
0.700073
0.698242
0.696106
0.693665
0.692139
0.689697
0.687866
0.686646
0.68512
0.683899
0.682068
0.680847
0.679016
0.677795
0.675659
0.675049
0.673828
0.671997
0.671387
0.670166
0.66803
0.666504
0.665283
0.664062
0.662537
0.660706
0.659485
0.658264
0.655518
0.653381
0.651855
0.65094
0.649109
0.646973
0.644836
0.643311
0.640869
0.638733
0.636902
0.635376
0.632935
0.629578
0.628967
0.625305
0.623169
0.620728
0.617981
0.614929
0.612793
0.609741
0.6073
0.604248
0.600891
0.597534
0.594177
0.591736
0.587769
0.585022
0.58197
0.578613
0.574646
0.570374
0.568237
0.563965
0.559692
0.55603
0.551758
0.547485
0.543213
0.539551
0.535583
0.530701
0.525818
0.521851
0.516968
0.512695
0.508118
0.503845
0.498962
0.49408
0.488892
0.484314
0.479431
0.473938
0.469055
0.462646
0.457764
0.452576
0.446777
0.440979
0.436401
0.429993
0.424194
0.418701
0.412292
0.406799
0.401306
0.395508
0.389404
0.383301
0.377502
0.371399
0.365601
0.359497
0.353699
0.34729
0.340576
0.334473
0.328064
0.32135
0.315552
0.309448
0.302429
0.296631
0.289612
0.284119
0.27832
0.271912
0.265503
0.258789
0.252075
0.245972
0.239563
0.233459
0.22644
0.220032
0.214233
0.206909
0.201416
0.194397
0.188599
0.1828
0.176697
0.169983
0.163574
0.157776
0.151062
0.145264
0.13916
0.133667
0.126953
0.12085
0.115051
0.108948
0.102844
0.0973511
0.0921631
0.085144
0.0799561
0.0744629
0.0692749
0.0628662
0.0567627
0.0515747
0.0460815
0.0408936
0.0354004
0.0311279
0.0244141
0.0195312
0.0143433
0.00915527
0.00396729
-0.000915527
-0.00610352
-0.0112915
-0.0161743
-0.0216675
-0.0262451
-0.0308228
-0.0354004
-0.0402832
-0.045166
-0.0488281
-0.0534058
-0.0570679
-0.0622559
-0.0665283
-0.0708008
-0.0741577
-0.0787354
-0.083313
-0.0872803
-0.0915527
-0.0952148
-0.098877
-0.102844
-0.106506
-0.110779
-0.113831
-0.117493
-0.120544
-0.124512
-0.127869
-0.131531
-0.133667
-0.137634
-0.139771
-0.144043
-0.146179
-0.150146
-0.151672
-0.155334
-0.158691
-0.160828
-0.16449
-0.166321
-0.169373
-0.172119
-0.175171
-0.177307
-0.179443
-0.182495
-0.184937
-0.187378
-0.188904
-0.19165
-0.194092
-0.196533
-0.198364
-0.19989
-0.202332
-0.204163
-0.206909
-0.208435
-0.210571
-0.211792
-0.213318
-0.215759
-0.21698
-0.218506
-0.220337
-0.221863
-0.223083
-0.22522
-0.226135
-0.227051
-0.227661
-0.229187
-0.230713
-0.231628
-0.232849
-0.233765
-0.234375
-0.235291
-0.236511
-0.237732
-0.238647
-0.238953
-0.240479
-0.241089
-0.24231
-0.243225
-0.244141
-0.244751
-0.245361
-0.246582
-0.247192
-0.247803
-0.248108
-0.248718
-0.249634
-0.249939
-0.250854
-0.251465
-0.25238
-0.252686
-0.253296
-0.253296
-0.253601
-0.255127
-0.255432
-0.255432
-0.255432
-0.255737
-0.256653
-0.255737
-0.256042
-0.256958
-0.256348
-0.256653
-0.256653
-0.257263
-0.257263
-0.257874
-0.257874
-0.257568
-0.258484
-0.258484
-0.257568
-0.258484
-0.258484
-0.258789
-0.258789
-0.258789
-0.258179
-0.258179
-0.258484
-0.257874
-0.258179
-0.257874
-0.257874
-0.258484
-0.257568
-0.257874
-0.257568
-0.257568
-0.256653
-0.257263
-0.256958
-0.256348
-0.256958
-0.256958
-0.256958
-0.256348
-0.256348
-0.256042
-0.255737
-0.255127
-0.255127
-0.255127
-0.255432
-0.254822
-0.254822
-0.255127
-0.254211
-0.253296
-0.253906
-0.253906
-0.253601
-0.252686
-0.252991
-0.252075
-0.25238
-0.25177
-0.25238
-0.251465
-0.25116
-0.250854
-0.25116
-0.250244
-0.249939
-0.249023
-0.249939
-0.249634
-0.248718
-0.249023
-0.248718
-0.248108
-0.248718
-0.247498
-0.248108
-0.247498
-0.247192
-0.247498
-0.246887
-0.246887
-0.246582
-0.246582
-0.246277
-0.245667
-0.245972
-0.245972
-0.245056
-0.245667
-0.245056
-0.244751
-0.244446
-0.245056
-0.245056
-0.244141
-0.24353
-0.244141
-0.244141
-0.24292
-0.243225
-0.243225
-0.242615
-0.242615
-0.241699
-0.241394
-0.241699
-0.241089
-0.240784
-0.239868
-0.239868
-0.239563
-0.238953
-0.238342
-0.238037
-0.238037
-0.238037
-0.237122
-0.237427
-0.237122
-0.235596
-0.235596
-0.235596
-0.235596
-0.235291
-0.234985
-0.235291
-0.234375
-0.233154
-0.232849
-0.232849
-0.232849
-0.232849
-0.232239
-0.232239
-0.231323
-0.230713
-0.231628
-0.230408
-0.230408
-0.229797
-0.230103
-0.230103
-0.229187
-0.229187
-0.228271
-0.228271
-0.227356
-0.227966
-0.227051
-0.227966
-0.22644
-0.227051
-0.22644
-0.225525
-0.225525
-0.224915
-0.224609
-0.223694
-0.223694
-0.223999
-0.222778
-0.222168
-0.222168
-0.221558
-0.222168
-0.220947
-0.220337
-0.220642
-0.219421
-0.220032
-0.219421
-0.218811
-0.218506
-0.218201
-0.21759
-0.217285
-0.216675
-0.216675
-0.215759
-0.215454
-0.214844
-0.214233
-0.213928
-0.213318
-0.212708
-0.212708
-0.212402
-0.211792
-0.210876
-0.210876
-0.209961
-0.209656
-0.209045
-0.208435
-0.20813
-0.20752
-0.206909
-0.206604
-0.206299
-0.205688
-0.205078
-0.203857
-0.203247
-0.202637
-0.203247
-0.202332
-0.200806
-0.200806
-0.2005
-0.19928
-0.198975
-0.198669
-0.197754
-0.196838
-0.197144
-0.195618
-0.195312
-0.194702
-0.193787
-0.193481
-0.192566
-0.192566
-0.19165
-0.19104
-0.189514
-0.190125
-0.189819
-0.188599
-0.188293
-0.187988
-0.187378
-0.186462
-0.186768
-0.185852
-0.184937
-0.185547
-0.184326
-0.184326
-0.184021
-0.184021
-0.183411
-0.183105
-0.183105
-0.182495
-0.18219
-0.18158
-0.180969
-0.181274
-0.180664
-0.180359
-0.180054
-0.180054
-0.179443
-0.179443
-0.178833
-0.178223
-0.177917
-0.177612
-0.177612
-0.177002
-0.176392
-0.176697
-0.175781
-0.175171
-0.174561
-0.174255
-0.173645
-0.173035
-0.172119
-0.171814
-0.171509
-0.170593
-0.169983
-0.169983
-0.168762
-0.168457
-0.168152
-0.167236
-0.166321
-0.16571
-0.163574
-0.163269
-0.161743
-0.160217
-0.159607
-0.157776
-0.15625
-0.154724
-0.152283
-0.149841
-0.14801
-0.145264
-0.142517
-0.139771
-0.136719
-0.132446
-0.128784
-0.124512
-0.120239
-0.115051
-0.108948
-0.103455
-0.0961304
-0.0881958
-0.0808716
-0.0720215
-0.0628662
-0.0518799
-0.0421143
-0.0299072
-0.0177002
-0.00457764
0.010376
0.0256348
0.0418091
0.0598145
0.078125
0.0964355
0.117188
0.138855
0.161438
0.186157
0.211182
0.236206
0.263672
0.292358
0.321655
0.352478
0.383301
0.417175
0.45105
0.484924
0.520325
0.556641
0.594788
0.632019
0.671692
0.711365
0.751648
0.792542
0.833435
0.875854
0.916748
0.959167
1.00159
1.04431
1.08673
1.12854
1.17096
1.21338
1.25397
1.29517
1.33606
1.37665
1.41571
1.45569
1.49323
1.53137
1.5683
1.60461
1.64062
1.67419
1.70807
1.74072
1.77277
1.80389
1.83411
1.86249
1.88995
1.9165
1.94244
1.96686
1.99127
2.01385
2.03491
2.05627
2.07611
2.09412
2.11243
2.12982
2.14539
2.16034
2.17468
2.1875
2.20062
2.21191
2.22321
2.23328
2.24182
2.25006
2.258
2.2644
2.27142
2.276
2.28088
2.28546
2.28882
2.29126
2.29462
2.29584
2.29736
2.29828
2.29767
2.29797
2.29736
2.29584
2.29492
2.29309
2.29065
2.28729
2.28363
2.28088
2.27692
2.27356
2.26898
2.2644
2.25952
2.25403
2.24884
2.24274
2.23694
2.23175
2.22504
2.21802
2.2113
2.20459
2.19757
2.19086
2.18323
2.1759
2.16797
2.16003
2.1521
2.14447
2.13531
2.12769
2.11945
2.11151
2.10327
2.09503
2.08496
2.07764
2.06909
2.06055
2.0517
2.04285
2.0343
2.02576
2.0166
2.00745
1.9989
1.99066
1.98212
1.97327
1.96411
1.95557
1.94672
1.93878
1.92963
1.92139
1.91315
1.9046
1.89636
1.88751
1.87927
1.87164
1.86371
1.85455
1.84662
1.83868
1.83044
1.8222
1.81427
1.80664
1.7984
1.79077
1.78314
1.7749
1.76758
1.76025
1.75262
1.74561
1.73828
1.73157
1.72424
1.71753
1.70959
1.70349
1.69617
1.68976
1.68243
1.67694
1.67023
1.66382
1.65802
1.65192
1.64581
1.6391
1.63391
1.6275
1.62292
1.61652
1.61102
1.60583
1.60095
1.59576
1.58997
1.58478
1.5799
1.57471
1.56952
1.56433
1.55975
1.55426
1.55029
1.5451
1.53992
1.53503
1.53137
1.52618
1.52191
1.51703
1.51245
1.50787
1.50238
1.49841
1.49353
1.48865
1.48407
1.47858
1.47369
1.4682
1.46362
1.45844
1.45355
1.44745
1.44318
1.43738
1.4325
1.427
1.42059
1.4151
1.40961
1.40411
1.39832
1.39191
1.3858
1.37878
1.37207
1.36505
1.35803
1.35132
1.34399
1.33606
1.32843
1.3205
1.31348
1.30524
1.2973
1.28784
1.28052
1.27106
1.2619
1.25366
1.24542
1.23474
1.22681
1.21704
1.2085
1.19812
1.18805
1.17859
1.16852
1.15845
1.14899
1.13892
1.12854
1.11786
1.1087
1.09802
1.08826
1.07819
1.06812
1.05713
1.04767
1.03699
1.02692
1.01715
1.00739
0.996704
0.987854
0.977478
0.968018
0.959167
0.949402
0.940552
0.932007
0.923462
0.914307
0.906677
0.897522
0.890198
0.882263
0.874939
0.867615
0.860596
0.853577
0.846863
0.840759
0.834656
0.828247
0.823059
0.817261
0.811462
0.805664
0.801392
0.797119
0.791931
0.788269
0.784302
0.78064
0.776672
0.773621
0.771484
0.767822
0.765381
0.762329
0.761108
0.757751
0.75592
0.754089
0.751648
0.750427
0.749207
0.747681
0.74707
0.745239
0.744324
0.742798
0.742798
0.742188
0.741272
0.741272
0.741272
0.741272
0.741272
0.740662
0.740662
0.740662
0.740356
0.740967
0.741577
0.740051
0.740356
0.740356
0.740662
0.740662
0.740356
0.740967
0.741577
0.741272
0.741882
0.741882
0.742493
0.742188
0.742188
0.741272
0.741882
0.741272
0.741272
0.740967
0.740967
0.740967
0.740356
0.739136
0.739136
0.73822
0.73822
0.737305
0.736694
0.734863
0.734558
0.733643
0.732422
0.731506
0.72998
0.728149
0.726624
0.725098
0.723267
0.72113
0.719604
0.717468
0.714722
0.712585
0.710754
0.708008
0.706482
0.703735
0.700378
0.697937
0.69397
0.691833
0.687866
0.684814
0.681152
0.67688
0.673218
0.66925
0.665588
0.661011
0.656738
0.652161
0.647888
0.643311
0.637512
0.63324
0.628357
0.623169
0.618591
0.613098
0.60791
0.602112
0.597229
0.592041
0.585632
0.580139
0.574036
0.568542
0.562744
0.55603
0.549316
0.544434
0.538025
0.531006
0.524902
0.518799
0.511475
0.505371
0.498352
0.492249
0.485535
0.47821
0.471802
0.465698
0.458374
0.45166
0.444641
0.437927
0.430908
0.423889
0.41687
0.409546
0.401917
0.395813
0.388489
0.381775
0.374451
0.367737
0.360718
0.353394
0.346069
0.339355
0.332642
0.325623
0.317993
0.31189
0.304565
0.298157
0.290527
0.284119
0.277405
0.270691
0.263672
0.257568
0.249939
0.242615
0.236206
0.229797
0.222778
0.217285
0.209351
0.204163
0.197754
0.19104
0.184631
0.178833
0.172119
0.166321
0.159912
0.154724
0.148315
0.143127
0.136719
0.13031
0.124817
0.119019
0.11261
0.107117
0.102234
0.0970459
0.0906372
0.0860596
0.0808716
0.0765991
0.071106
0.0662231
0.0613403
0.0558472
0.0515747
0.0463867
0.0405884
0.0375366
0.0320435
0.0271606
0.0231934
0.0195312
0.0143433
0.00946045
0.00579834
0.00183105
-0.00244141
-0.00701904
-0.010376
-0.0149536
-0.017395
-0.0219727
-0.0250244
-0.0289917
-0.0335693
-0.0363159
-0.039978
-0.043335
-0.0466919
-0.050354
-0.0524902
-0.0570679
-0.0592041
-0.0628662
-0.0662231
-0.0692749
-0.0714111
-0.0744629
-0.0765991
-0.0799561
-0.0823975
-0.0842285
-0.0866699
-0.0894165
-0.0915527
-0.0946045
-0.0961304
-0.098877
-0.101318
-0.102539
-0.104675
-0.106201
-0.108643
-0.110779
-0.112
-0.114136
-0.115662
-0.116882
-0.118713
-0.120239
-0.12146
-0.122681
-0.124512
-0.126343
-0.127563
-0.128784
-0.1297
-0.130615
-0.132446
-0.133667
-0.133667
-0.135193
-0.136414
-0.137329
-0.138855
-0.137939
-0.139771
-0.140686
-0.140381
-0.141907
-0.142517
-0.142822
-0.143433
-0.144653
-0.144653
-0.144653
-0.145874
-0.145874
-0.14679
-0.1474
-0.147095
-0.147705
-0.14801
-0.14801
-0.148621
-0.148315
-0.148315
-0.148315
-0.148926
-0.149536
-0.148926
-0.148926
-0.148926
-0.148621
-0.149231
-0.148621
-0.149231
-0.149231
-0.148621
-0.148926
-0.148621
-0.148315
-0.147705
-0.1474
-0.147095
-0.14679
-0.146484
-0.14679
-0.145874
-0.145569
-0.144653
-0.144348
-0.144043
-0.143738
-0.143738
-0.143738
-0.143433
-0.142212
-0.142212
-0.141602
-0.140991
-0.140076
-0.140076
-0.140686
-0.139465
-0.138245
-0.137939
-0.136719
-0.137329
-0.135498
-0.135498
-0.134277
-0.133972
-0.133972
-0.132751
-0.132141
-0.13092
-0.13031
-0.130005
-0.1297
-0.128784
-0.128174
-0.127563
-0.126953
-0.124817
-0.124207
-0.124512
-0.123596
-0.122681
-0.122681
-0.12085
-0.12085
-0.119629
-0.118408
-0.117188
-0.117493
-0.116272
-0.116272
-0.115356
-0.114746
-0.114136
-0.11322
-0.11261
-0.112
-0.110474
-0.109863
-0.109253
-0.109253
-0.108032
-0.107422
-0.106506
-0.105286
-0.105591
-0.10437
-0.104065
-0.103455
-0.102539
-0.102539
-0.102539
-0.101318
-0.101624
-0.100403
-0.100098
-0.098877
-0.0991821
-0.0982666
-0.0979614
-0.0976562
-0.0973511
-0.0964355
-0.0949097
-0.09552
-0.0949097
-0.0942993
-0.0946045
-0.0942993
-0.093689
-0.0933838
-0.0930786
-0.0924683
-0.0921631
-0.0921631
-0.0924683
-0.0921631
-0.0915527
-0.0918579
-0.0912476
-0.0918579
-0.0912476
-0.0912476
-0.0906372
-0.0909424
-0.0906372
-0.0909424
-0.0906372
-0.0912476
-0.090332
-0.0909424
-0.0912476
-0.0912476
-0.0915527
-0.0912476
-0.0912476
-0.0921631
-0.0921631
-0.0921631
-0.0927734
-0.0927734
-0.0933838
-0.0942993
-0.0942993
-0.0942993
-0.0952148
-0.09552
-0.0952148
-0.0961304
-0.0964355
-0.0967407
-0.0982666
-0.0982666
-0.098877
-0.0997925
-0.100098
-0.101318
-0.101318
-0.102234
-0.103149
-0.103455
-0.104065
-0.10498
-0.105286
-0.107117
-0.108032
-0.108948
-0.109253
-0.110779
-0.111694
-0.11261
-0.113831
-0.115051
-0.115967
-0.116882
-0.117798
-0.118408
-0.119934
-0.120544
-0.12207
-0.122375
-0.123901
-0.124512
-0.126038
-0.127258
-0.127563
-0.128174
-0.128784
-0.130615
-0.131531
-0.132446
-0.133057
-0.134583
-0.135803
-0.135803
-0.136719
-0.137939
-0.13855
-0.13916
-0.140686
-0.140381
-0.141602
-0.141296
-0.142212
-0.143433
-0.143127
-0.144043
-0.144653
-0.145264
-0.145264
-0.145874
-0.145569
-0.146179
-0.146179
-0.146484
-0.147095
-0.147095
-0.14679
-0.145874
-0.146179
-0.145569
-0.144958
-0.144653
-0.143738
-0.142517
-0.142822
-0.141296
-0.139771
-0.13855
-0.136414
-0.134583
-0.132141
-0.130005
-0.127258
-0.124207
-0.120239
-0.115967
-0.11261
-0.108032
-0.102539
-0.0964355
-0.090332
-0.0836182
-0.0762939
-0.0671387
-0.0595093
-0.0494385
-0.0393677
-0.0283813
-0.0170898
-0.00549316
0.00793457
0.0219727
0.0363159
0.0524902
0.0692749
0.0860596
0.10437
0.124512
0.144043
0.16571
0.188599
0.211792
0.236206
0.26123
0.28717
0.314636
0.342102
0.371094
0.39978
0.430908
0.461426
0.493164
0.526123
0.559387
0.593567
0.628357
0.662842
0.698547
0.734863
0.769958
0.80658
0.842896
0.879822
0.916443
0.952759
0.989075
1.026
1.0611
1.09711
1.13281
1.16821
1.2027
1.23688
1.27075
1.30371
1.33545
1.36749
1.39984
1.43036
1.45966
1.48895
1.51703
1.5451
1.57166
1.5976
1.62231
1.64642
1.66931
1.69189
1.71326
1.73462
1.75354
1.77307
1.79108
1.80817
1.82404
1.8396
1.85547
1.86859
1.88171
1.89362
1.90491
1.91528
1.92474
1.9342
1.94214
1.94946
1.95648
1.96198
1.96808
1.97266
1.97754
1.9812
1.98334
1.98639
1.98761
1.98822
1.99036
1.99036
1.99036
1.98914
1.98853
1.98608
1.98456
1.98212
1.97906
1.97662
1.97296
1.96899
1.96411
1.95923
1.95496
1.94946
1.94427
1.93817
1.93298
1.92627
1.91925
1.91315
1.90674
1.89941
1.89178
1.88446
1.87744
1.86951
1.86157
1.85272
1.8454
1.83685
1.82892
1.82037
1.81061
1.80359
1.79382
1.78497
1.77612
1.76788
1.75812
1.74988
1.73981
1.73096
1.72089
1.71204
1.70166
1.69312
1.68365
1.67419
1.66412
1.65558
1.6452
1.63635
1.62628
1.61682
1.60736
1.5979
1.58905
1.57959
1.56982
1.56067
1.55121
1.54266
1.5332
1.52435
1.5155
1.50604
1.49719
1.48865
1.4798
1.47064
1.4624
1.45233
1.4444
1.43616
1.42731
1.41937
1.41113
1.4035
1.39526
1.38733
1.37939
1.37085
1.36353
1.3559
1.34979
1.34064
1.33423
1.3266
1.31989
1.31256
1.30554
1.29761
1.29181
1.28448
1.27777
1.27136
1.26434
1.25793
1.25153
1.24542
1.23932
1.2326
1.2265
1.2207
1.21429
1.20789
1.20239
1.19629
1.18988
1.18378
1.1792
1.17279
1.16608
1.15997
1.15479
1.14807
1.14258
1.13617
1.13098
1.12518
1.11847
1.11206
1.10687
1.10016
1.09436
1.08765
1.08185
1.07513
1.06812
1.0611
1.05499
1.04797
1.04034
1.03333
1.02661
1.01868
1.01135
1.00464
0.996704
0.987854
0.98053
0.9729
0.96405
0.955505
0.947266
0.939026
0.930176
0.921021
0.911865
0.90271
0.89447
0.884705
0.876465
0.866394
0.857849
0.848083
0.838318
0.830078
0.819702
0.810242
0.801392
0.791016
0.781555
0.77301
0.76355
0.754089
0.744629
0.735168
0.725708
0.716858
0.707397
0.699463
0.690918
0.682373
0.674438
0.665894
0.657349
0.649719
0.641174
0.634766
0.626831
0.619507
0.613098
0.606384
0.599976
0.594177
0.587463
0.582275
0.577393
0.571594
0.567322
0.562134
0.557861
0.553894
0.549927
0.546265
0.543213
0.539246
0.537109
0.534363
0.531616
0.530396
0.52887
0.526428
0.525208
0.523682
0.523682
0.523071
0.523071
0.522461
0.522461
0.522156
0.523376
0.523682
0.525208
0.526428
0.527344
0.529175
0.531006
0.532532
0.534058
0.536804
0.53894
0.540771
0.543213
0.545959
0.547791
0.550537
0.552673
0.556335
0.558777
0.561523
0.564575
0.567322
0.570679
0.573425
0.576477
0.579224
0.582886
0.586548
0.589294
0.592957
0.595703
0.598145
0.602112
0.604553
0.606995
0.609741
0.613098
0.61615
0.618286
0.620422
0.623169
0.625916
0.627747
0.629272
0.631714
0.634155
0.635986
0.637817
0.639648
0.640564
0.6427
0.643921
0.644531
0.645752
0.646973
0.646973
0.648499
0.648499
0.648499
0.648804
0.649109
0.647278
0.647888
0.647583
0.646973
0.646057
0.644226
0.643921
0.643005
0.641479
0.639648
0.637512
0.636292
0.634155
0.631409
0.629578
0.626526
0.624695
0.621338
0.618286
0.61554
0.612793
0.608826
0.604553
0.601196
0.597534
0.593567
0.589905
0.585938
0.581665
0.577393
0.572815
0.567627
0.563354
0.558777
0.552979
0.548096
0.543213
0.537415
0.531616
0.526428
0.52063
0.515442
0.509338
0.503845
0.497742
0.491943
0.485535
0.480042
0.473938
0.467224
0.462036
0.455933
0.448914
0.441589
0.436401
0.429688
0.423584
0.416565
0.409546
0.403442
0.396729
0.39032
0.383301
0.377197
0.370789
0.363159
0.357056
0.350952
0.343933
0.337219
0.330505
0.323486
0.317688
0.310669
0.304871
0.298157
0.292053
0.284424
0.278625
0.271606
0.264893
0.258179
0.25177
0.246277
0.239258
0.233154
0.22644
0.220642
0.213318
0.207214
0.201721
0.195923
0.188904
0.183716
0.177307
0.171204
0.164185
0.159302
0.153198
0.147705
0.141602
0.135803
0.131226
0.125122
0.119324
0.113525
0.108948
0.104065
0.0970459
0.0915527
0.0869751
0.0830078
0.0784302
0.0732422
0.067749
0.0628662
0.0582886
0.0527954
0.0479126
0.043335
0.0384521
0.0335693
0.0289917
0.0250244
0.020752
0.0152588
0.0119019
0.00671387
0.00274658
-0.00244141
-0.00549316
-0.0088501
-0.0143433
-0.0183105
-0.0222778
-0.0265503
-0.0299072
-0.0335693
-0.0369263
-0.0408936
-0.0448608
-0.0485229
-0.0518799
-0.0552368
-0.0585938
-0.0619507
-0.0650024
-0.0683594
-0.0717163
-0.0738525
-0.0765991
-0.0799561
-0.0827026
-0.0860596
-0.0888062
-0.0909424
-0.093689
-0.0958252
-0.098877
-0.101318
-0.103149
-0.106201
-0.108032
-0.110779
-0.11322
-0.114746
-0.116272
-0.119019
-0.121155
-0.123596
-0.124207
-0.125732
-0.128479
-0.130005
-0.131531
-0.133667
-0.134583
-0.136719
-0.13855
-0.138855
-0.140076
-0.141907
-0.142822
-0.143127
-0.144958
-0.145874
-0.147705
-0.147705
-0.148621
-0.149231
-0.150757
-0.151062
-0.151978
-0.152283
-0.153809
-0.154419
-0.155029
-0.155334
-0.155945
-0.157166
-0.158081
-0.158081
-0.158997
-0.159607
-0.159912
-0.159912
-0.160217
-0.160828
-0.160522
-0.161133
-0.161133
-0.161743
-0.162048
-0.162048
-0.162659
-0.162048
-0.162659
-0.162659
-0.163269
-0.162964
-0.163269
-0.162964
-0.162659
-0.162659
-0.162354
-0.162354
-0.161133
-0.160828
-0.161438
-0.160828
-0.160217
-0.160217
-0.159607
-0.158997
-0.157776
-0.158386
-0.157471
-0.156555
-0.157166
-0.155945
-0.15564
-0.154724
-0.153503
-0.153198
-0.152893
-0.151672
-0.151062
-0.149841
-0.149536
-0.148621
-0.1474
-0.147095
-0.146179
-0.145264
-0.144348
-0.143433
-0.142517
-0.142517
-0.141296
-0.140381
-0.13916
-0.13855
-0.137634
-0.136414
-0.134583
-0.135193
-0.133972
-0.132751
-0.131531
-0.130615
-0.130005
-0.128174
-0.127258
-0.126343
-0.125427
-0.124207
-0.122681
-0.122375
-0.12146
-0.119629
-0.119324
-0.117798
-0.115356
-0.115051
-0.11322
-0.112305
-0.111389
-0.109863
-0.108337
-0.106812
-0.105591
-0.10437
-0.103455
-0.101929
-0.100708
-0.0997925
-0.0982666
-0.0970459
-0.0952148
-0.093689
-0.0918579
-0.0912476
-0.090332
-0.0888062
-0.0869751
-0.0857544
-0.0839233
-0.0830078
-0.0805664
-0.0799561
-0.0790405
-0.0772095
-0.0762939
-0.0750732
-0.0741577
-0.0735474
-0.0717163
-0.0701904
-0.0698853
-0.067749
-0.0671387
-0.065918
-0.0650024
-0.0637817
-0.0628662
-0.0619507
-0.0598145
-0.0595093
-0.0582886
-0.057373
-0.057373
-0.0564575
-0.0561523
-0.0543213
-0.0540161
-0.0531006
-0.0531006
-0.0521851
-0.0512695
-0.0506592
-0.0509644
-0.0497437
-0.0500488
-0.0485229
-0.0479126
-0.0476074
-0.0469971
-0.0469971
-0.0460815
-0.0457764
-0.0454712
-0.0445557
-0.0448608
-0.0454712
-0.0445557
-0.0448608
-0.0442505
-0.0445557
-0.0445557
-0.0445557
-0.0436401
-0.0436401
-0.0436401
-0.0439453
-0.0442505
-0.0439453
-0.0439453
-0.043335
-0.0445557
-0.0436401
-0.0436401
-0.0436401
-0.0439453
-0.045166
-0.0436401
-0.0442505
-0.0442505
-0.0448608
-0.0448608
-0.0454712
-0.045166
-0.0454712
-0.0463867
-0.0463867
-0.0466919
-0.0466919
-0.0469971
-0.0469971
-0.0482178
-0.0476074
-0.0476074
-0.0485229
-0.0485229
-0.0485229
-0.0497437
-0.0500488
-0.0506592
-0.0506592
-0.0506592
-0.0509644
-0.0515747
-0.0515747
-0.0518799
-0.0521851
-0.0524902
-0.0527954
-0.0527954
-0.0531006
-0.0534058
-0.0537109
-0.0521851
-0.0527954
-0.0531006
-0.0521851
-0.0524902
-0.0515747
-0.0509644
-0.0497437
-0.0497437
-0.0482178
-0.0473022
-0.0466919
-0.0448608
-0.0424194
-0.0408936
-0.0375366
-0.0350952
-0.0320435
-0.0286865
-0.0241089
-0.0198364
-0.0146484
-0.00915527
-0.00335693
0.00305176
0.0106812
0.017395
0.0259399
0.0350952
0.0454712
0.0549316
0.0668335
0.0799561
0.0921631
0.105591
0.121765
0.137024
0.154114
0.171814
0.190735
0.210876
0.232239
0.254517
0.277405
0.301819
0.327148
0.353394
0.381775
0.410156
0.439453
0.469971
0.502319
0.534058
0.567932
0.602417
0.636292
0.672913
0.708923
0.746765
0.784302
0.821838
0.860901
0.900269
0.939636
0.978699
1.01898
1.05804
1.09802
1.1377
1.17737
1.21613
1.25488
1.29425
1.3324
1.36932
1.40839
1.44562
1.48071
1.51581
1.5509
1.58447
1.61835
1.65009
1.68274
1.71295
1.74225
1.77094
1.79901
1.82617
1.85303
1.87775
1.90247
1.92535
1.94885
1.96991
1.99066
2.00989
2.0285
2.04681
2.06329
2.07886
2.09412
2.10785
2.12219
2.13409
2.146
2.15576
2.16614
2.1759
2.18414
2.19177
2.1994
2.2049
2.211
2.21558
2.22076
2.22473
2.22687
2.22931
2.23175
2.23328
2.2345
2.23511
2.23541
2.23419
2.23297
2.23175
2.22992
2.22839
2.22565
2.22198
2.21863
2.21497
2.21161
2.20703
2.20398
2.19818
2.19391
2.18811
2.18323
2.17712
2.17163
2.16461
2.15851
2.15271
2.146
2.13898
2.13196
2.12463
2.11761
2.1106
2.10236
2.09534
2.08679
2.08008
2.07214
2.0639
2.05566
2.04742
2.03979
2.03217
2.02332
2.01508
2.00653
1.9989
1.99036
1.98212
1.97327
1.96442
1.95618
1.94855
1.94
1.93146
1.92322
1.91406
1.90613
1.89728
1.88904
1.88049
1.87286
1.86462
1.85669
1.84845
1.8396
1.83136
1.82343
1.81549
1.80817
1.79901
1.79108
1.78345
1.77643
1.76849
1.76147
1.75354
1.74652
1.7392
1.73218
1.72455
1.71783
1.71082
1.70319
1.69678
1.69067
1.68304
1.67664
1.67023
1.6626
1.65649
1.65039
1.64337
1.6391
1.63208
1.62598
1.61987
1.61407
1.60828
1.60248
1.59729
1.5918
1.58539
1.58081
1.57562
1.56952
1.56433
1.55914
1.55457
1.54907
1.54358
1.539
1.53381
1.52863
1.52405
1.51978
1.51489
1.5097
1.50482
1.50055
1.49567
1.49048
1.48682
1.48224
1.47705
1.47217
1.4682
1.46271
1.45782
1.45294
1.44806
1.44379
1.43921
1.43372
1.42883
1.42426
1.41907
1.41357
1.40839
1.40411
1.39862
1.39343
1.38824
1.38214
1.37634
1.37085
1.36475
1.35925
1.35284
1.34674
1.34033
1.33392
1.3269
1.3205
1.31287
1.30737
1.29944
1.2915
1.28387
1.27686
1.26892
1.26038
1.25305
1.24451
1.23596
1.22681
1.21765
1.20911
1.19965
1.19019
1.18134
1.17126
1.1615
1.15204
1.14075
1.13098
1.12152
1.11084
1.09985
1.09009
1.0791
1.06873
1.05804
1.04706
1.03729
1.02631
1.01562
1.00494
0.993652
0.982971
0.972595
0.961609
0.951233
0.940552
0.930176
0.920105
0.909729
0.900269
0.890198
0.880432
0.870667
0.861511
0.851746
0.842896
0.83374
0.824585
0.816345
0.808105
0.799255
0.791016
0.783081
0.776367
0.768433
0.761108
0.753479
0.74707
0.740051
0.734253
0.72876
0.722351
0.717773
0.71228
0.706787
0.701294
0.697327
0.692139
0.687256
0.683594
0.679016
0.675964
0.672607
0.66803
0.664673
0.661621
0.657959
0.656433
0.653076
0.651245
0.648804
0.646973
0.645447
0.643921
0.641174
0.639954
0.637207
0.636292
0.635071
0.634155
0.632629
0.631714
0.631104
0.629578
0.628967
0.628357
0.627441
0.627747
0.625916
0.626831
0.626221
0.626221
0.625916
0.624695
0.625
0.62439
0.623779
0.623474
0.623474
0.622864
0.621948
0.621643
0.621033
0.620422
0.620422
0.619507
0.619202
0.618896
0.617981
0.618286
0.61676
0.61676
0.61554
0.614929
0.613098
0.612488
0.611267
0.610046
0.60791
0.606995
0.605469
0.603333
0.602417
0.599976
0.598145
0.596313
0.594788
0.592957
0.590515
0.588379
0.585938
0.583801
0.58136
0.578918
0.576477
0.57373
0.570068
0.567322
0.56366
0.561218
0.557251
0.554199
0.550537
0.546265
0.543213
0.538635
0.535583
0.530701
0.527344
0.523376
0.519104
0.514832
0.510254
0.506287
0.500793
0.495605
0.491333
0.486755
0.481567
0.476685
0.471191
0.466309
0.461426
0.455322
0.450134
0.444946
0.439453
0.43335
0.428772
0.422668
0.416565
0.411072
0.404663
0.39856
0.392761
0.386353
0.379944
0.37384
0.368042
0.360718
0.354614
0.347595
0.342102
0.334167
0.328064
0.32135
0.314941
0.307922
0.301514
0.2948
0.287781
0.281372
0.274353
0.267944
0.26123
0.254211
0.247498
0.240479
0.234375
0.227051
0.219727
0.213928
0.207214
0.200195
0.193481
0.186768
0.180664
0.174255
0.167847
0.161133
0.154114
0.148926
0.141907
0.135803
0.1297
0.122375
0.116577
0.109558
0.104065
0.0976562
0.0912476
0.0845337
0.0796509
0.0735474
0.0671387
0.0616455
0.055542
0.0500488
0.0442505
0.038147
0.0326538
0.0271606
0.0216675
0.015564
0.0106812
0.00518799
0.0
-0.00518799
-0.0115967
-0.0158691
-0.0213623
-0.0265503
-0.0320435
-0.0369263
-0.0421143
-0.0476074
-0.0518799
-0.0561523
-0.0613403
-0.0668335
-0.0708008
-0.0756836
-0.0799561
-0.0842285
-0.0888062
-0.0930786
-0.0973511
-0.101929
-0.105591
-0.109863
-0.113831
-0.118103
-0.121765
-0.125122
-0.129089
-0.133057
-0.136719
-0.140076
-0.143738
-0.14679
-0.149841
-0.152893
-0.15625
-0.159607
-0.162354
-0.1651
-0.168152
-0.171204
-0.17334
-0.176697
-0.179443
-0.182495
-0.185852
-0.187378
-0.190735
-0.193176
-0.195618
-0.197754
-0.198975
-0.201416
-0.204163
-0.205994
-0.209045
-0.210876
-0.211792
-0.213623
-0.215454
-0.217285
-0.218506
-0.221558
-0.222473
-0.224304
-0.22583
-0.227051
-0.229187
-0.231018
-0.231323
-0.233154
-0.233765
-0.235291
-0.235901
-0.237732
-0.238647
-0.240173
-0.240784
-0.241699
-0.24231
-0.24353
-0.244751
-0.245361
-0.245972
-0.246277
-0.246582
-0.247803
-0.248718
-0.249634
-0.250854
-0.250244
-0.251465
-0.25177
-0.252686
-0.252686
-0.252686
-0.253601
-0.253906
-0.254517
-0.255432
-0.255737
-0.255737
-0.256348
-0.256348
-0.256348
-0.256348
-0.257568
-0.257263
-0.257874
-0.257874
-0.257874
-0.257568
-0.257568
-0.257568
-0.257874
-0.257568
-0.258179
-0.257263
-0.258179
-0.257874
-0.257874
-0.257568
-0.257874
-0.257263
-0.256958
-0.257263
-0.257263
-0.256958
-0.256348
-0.256348
-0.256042
-0.256042
-0.256042
-0.255127
-0.254517
-0.255127
-0.254822
-0.253906
-0.253601
-0.252686
-0.252686
-0.25238
-0.25238
-0.25177
-0.25177
-0.251465
-0.25116
-0.250549
-0.250549
-0.250244
-0.249634
-0.249329
-0.249329
-0.248413
-0.247192
-0.247498
-0.247803
-0.247192
-0.246582
-0.246277
-0.245667
-0.246277
-0.244751
-0.244751
-0.244446
-0.244141
-0.243225
-0.242615
-0.242615
-0.24231
-0.241089
-0.240479
-0.240479
-0.239258
-0.238953
-0.239258
-0.237732
-0.237732
-0.237122
-0.236206
-0.236206
-0.235901
-0.234985
-0.23407
-0.23407
-0.232239
-0.232239
-0.232239
-0.230408
-0.230103
-0.229492
-0.228882
-0.227966
-0.227051
-0.22644
-0.22583
-0.225525
-0.224915
-0.224304
-0.223389
-0.223083
-0.222473
-0.221863
-0.220642
-0.219727
-0.220032
-0.219116
-0.21759
-0.217285
-0.216675
-0.21637
-0.215149
-0.214233
-0.214233
-0.213318
-0.212708
-0.213318
-0.211792
-0.211182
-0.210571
-0.210571
-0.209961
-0.20874
-0.20813
-0.207825
-0.20752
-0.206909
-0.206909
-0.205994
-0.205688
-0.205383
-0.204773
-0.203857
-0.204468
-0.203552
-0.202942
-0.202942
-0.203552
-0.202637
-0.202637
-0.202026
-0.202942
-0.202332
-0.201721
-0.201111
-0.201721
-0.202026
-0.201416
-0.201111
-0.201111
-0.201416
-0.200806
-0.2005
-0.2005
-0.200806
-0.201111
-0.202026
-0.2005
-0.2005
-0.201111
-0.201111
-0.202026
-0.201721
-0.202026
-0.201721
-0.203247
-0.202637
-0.203552
-0.203247
-0.203857
-0.204163
-0.203552
-0.203857
-0.205383
-0.204773
-0.205383
-0.205078
-0.205994
-0.206299
-0.205688
-0.206299
-0.206909
-0.207214
-0.20752
-0.20752
-0.207825
-0.20752
-0.208435
-0.208435
-0.20874
-0.209045
-0.209045
-0.209045
-0.209656
-0.209045
-0.209656
-0.209961
-0.209656
-0.209351
-0.209351
-0.210266
-0.209656
-0.209656
-0.209961
-0.209045
-0.209351
-0.209045
-0.20874
-0.20813
-0.20752
-0.207825
-0.206604
-0.205994
-0.205078
-0.202637
-0.202332
-0.201111
-0.19928
-0.198669
-0.196228
-0.194092
-0.191956
-0.189209
-0.185547
-0.1828
-0.178223
-0.175171
-0.170288
-0.164795
-0.159607
-0.152588
-0.146179
-0.13916
-0.131226
-0.122681
-0.113525
-0.102539
-0.0912476
-0.0808716
-0.0671387
-0.0546265
-0.0396729
-0.0238037
-0.00823975
0.00823975
0.0274658
0.0460815
0.0665283
0.0866699
0.109558
0.133667
0.156555
0.183105
0.209351
0.237732
0.266113
0.29541
0.325928
0.357971
0.390625
0.425415
0.458374
0.493164
0.529785
0.567017
0.603027
0.641479
0.680237
0.719299
0.758667
0.798035
0.838623
0.878906
0.919495
0.959167
0.99884
1.03851
1.0791
1.11877
1.15692
1.19659
1.23474
1.27197
1.30981
1.34674
1.38153
1.41754
1.45111
1.4856
1.51825
1.55121
1.58203
1.61224
1.64185
1.67053
1.69891
1.72577
1.75079
1.77551
1.80054
1.82281
1.84448
1.86676
1.88629
1.90521
1.92383
1.94092
1.95709
1.97296
1.98761
2.00226
2.01538
2.02728
2.03857
2.04926
2.0578
2.06787
2.07672
2.08405
2.09076
2.09686
2.10236
2.10663
2.1106
2.11487
2.11853
2.12067
2.12219
2.12311
2.12463
2.12494
2.12494
2.12494
2.12311
2.12219
2.12097
2.11914
2.11639
2.11426
2.1109
2.10724
2.10419
2.10022
2.09564
2.09198
2.08679
2.08221
2.07733
2.07153
2.06696
2.06055
2.05444
2.04926
2.04285
2.03705
2.03003
2.02423
2.01813
2.01233
2.00439
1.99738
1.99005
1.98303
1.97601
1.9696
1.96198
1.95557
1.94733
1.94061
1.93359
1.92596
1.91925
1.91132
1.90399
1.89697
1.88965
1.88202
1.87469
1.86707
1.86035
1.8515
1.84479
1.83716
1.83044
1.82312
1.81519
1.80786
1.79993
1.79352
1.78619
1.77887
1.77185
1.76453
1.75751
1.75049
1.74408
1.73645
1.73004
1.72363
1.71692
1.70959
1.70319
1.69708
1.69067
1.68365
1.67755
1.67084
1.66443
1.65802
1.65161
1.64551
1.64001
1.63513
1.62842
1.62292
1.61713
1.61194
1.60675
1.60065
1.59454
1.59027
1.58539
1.57959
1.57379
1.56982
1.56403
1.55884
1.55426
1.54907
1.54419
1.53992
1.53503
1.53046
1.52527
1.521
1.51611
1.51154
1.50696
1.50208
1.4978
1.49323
1.48895
1.48468
1.4798
1.47491
1.47095
1.46729
1.4621
1.45782
1.45386
1.44928
1.44501
1.44073
1.43677
1.43219
1.42761
1.42212
1.41815
1.41357
1.4093
1.40411
1.40015
1.39496
1.39038
1.38611
1.38031
1.37665
1.37085
1.36627
1.36108
1.3562
1.35132
1.34613
1.34003
1.33575
1.32965
1.32355
1.31805
1.31226
1.30646
1.29944
1.29272
1.28693
1.27991
1.27289
1.26556
1.25885
1.25183
1.24451
1.23688
1.22894
1.22101
1.21277
1.20392
1.19629
1.18713
1.1795
1.17035
1.16119
1.15234
1.14288
1.13281
1.12396
1.11389
1.10443
1.09406
1.08459
1.07513
1.06506
1.0553
1.04462
1.03546
1.02417
1.0144
1.00433
0.994263
0.983582
0.974121
0.96344
0.952759
0.943298
0.932922
0.922852
0.912781
0.903015
0.892029
0.883179
0.872803
0.864258
0.854187
0.844727
0.835266
0.8255
0.817261
0.808716
0.799255
0.791626
0.782166
0.774231
0.767517
0.759277
0.751953
0.744324
0.737305
0.730286
0.723267
0.717163
0.710144
0.704651
0.698242
0.693054
0.686646
0.682068
0.67688
0.671997
0.666504
0.662231
0.658569
0.653381
0.650024
0.646057
0.642395
0.637817
0.635376
0.632324
0.628967
0.626526
0.622559
0.620422
0.617371
0.615845
0.613403
0.610962
0.608826
0.606995
0.605774
0.603638
0.601807
