-0.0198364
-0.019989
-0.0195312
-0.0192261
-0.0187683
-0.018158
-0.0175476
-0.0163269
-0.0149536
-0.0134277
-0.0123596
-0.010376
-0.00839233
-0.00610352
-0.00320435
-0.000610352
0.00259399
0.00610352
0.00930786
0.0134277
0.0180054
0.0222778
0.0268555
0.0311279
0.0354004
0.0395203
0.0439453
0.0474548
0.0506592
0.0538635
0.0564575
0.0584412
0.0593567
0.0610352
0.0616455
0.0621033
0.0630188
0.0636292
0.0643921
0.0650024
0.0662231
0.0674438
0.0691223
0.0714111
0.0737
0.0765991
0.0798035
0.0843811
0.0886536
0.0932312
0.0987244
0.103607
0.108185
0.113068
0.117035
0.121307
0.124817
0.128174
0.130768
0.132751
0.13382
0.134735
0.13443
0.133209
0.131378
0.128937
0.125732
0.121613
0.116882
0.112305
0.105743
0.0997925
0.093689
0.0865173
0.0793457
0.0718689
0.0645447
0.0570679
0.0505066
0.0437927
0.038147
0.0325012
0.0271606
0.0216675
0.0166321
0.0115967
0.00595093
0.000762939
-0.00442505
-0.0106812
-0.0167847
-0.0233459
-0.0302124
-0.0367737
-0.0430298
-0.0492859
-0.055542
-0.0610352
-0.0660706
-0.0704956
-0.0743103
-0.0778198
-0.0804138
-0.0827026
-0.0845337
-0.0852966
-0.0862122
-0.0863647
-0.0866699
-0.0866699
-0.0860596
-0.0860596
-0.0852966
-0.0849915
-0.0843811
-0.0842285
-0.0839233
-0.0837708
-0.0834656
-0.0834656
-0.0828552
-0.0828552
-0.0822449
-0.0819397
-0.0813293
-0.0804138
-0.0801086
-0.0793457
-0.0787354
-0.0784302
-0.0784302
-0.0784302
-0.0787354
-0.0782776
-0.0778198
-0.0776672
-0.0767517
-0.0761414
-0.0750732
-0.0740051
-0.0726318
-0.0704956
-0.0688171
-0.0672913
-0.0653076
-0.0634766
-0.0617981
-0.0598145
-0.0582886
-0.057373
-0.0566101
-0.0556946
-0.0552368
-0.0553894
-0.0556946
-0.0566101
-0.0578308
-0.0598145
-0.0622559
-0.065155
-0.0682068
-0.0718689
-0.0753784
-0.0788879
-0.0820923
-0.0852966
-0.087738
-0.0898743
-0.0912476
-0.091095
-0.0898743
-0.087738
-0.0836182
-0.078125
-0.0701904
-0.059967
-0.0462341
-0.0294495
-0.0088501
0.0161743
0.0448608
0.078125
0.115051
0.156403
0.201416
0.250092
0.302277
0.357971
0.416718
0.477753
0.540161
0.60257
0.663757
0.722046
0.775757
0.822601
0.861816
0.891876
0.91217
0.922852
0.923615
0.914459
0.895233
0.865784
0.826416
0.776672
0.717468
0.650177
0.574188
0.492096
0.405273
0.315399
0.224762
0.134888
0.0466919
-0.0358582
-0.11322
-0.183716
-0.245361
-0.298309
-0.341492
-0.375214
-0.399628
-0.414734
-0.421753
-0.421906
-0.415039
-0.402374
-0.385742
-0.364838
-0.340881
-0.315094
-0.287933
-0.260773
-0.233002
-0.206604
-0.181427
-0.158234
-0.137177
-0.118408
-0.101929
-0.0881958
-0.0770569
-0.0688171
-0.0624084
-0.058136
-0.0556946
-0.0549316
-0.0553894
-0.0570679
-0.0592041
-0.0616455
-0.0653076
-0.068512
-0.0717163
-0.0747681
-0.0772095
-0.0796509
-0.0811768
-0.0822449
-0.0822449
-0.0816345
-0.0808716
-0.0791931
-0.0773621
-0.0747681
-0.0727844
-0.0700378
-0.0675964
-0.0650024
-0.062561
-0.0604248
-0.0578308
-0.0566101
-0.0550842
-0.0538635
-0.0527954
-0.0526428
-0.0521851
-0.0518799
-0.0515747
-0.0512695
-0.0511169
-0.0514221
-0.0514221
-0.0515747
-0.0518799
-0.0521851
-0.052948
-0.0532532
-0.0541687
-0.0549316
-0.0558472
-0.0564575
-0.0572205
-0.0572205
-0.0569153
-0.0567627
-0.055542
-0.0544739
-0.0527954
-0.0511169
-0.0488281
-0.0469971
-0.0450134
-0.0427246
-0.0408936
-0.0393677
-0.0375366
-0.0366211
-0.0358582
-0.03479
-0.0349426
-0.0350952
-0.0350952
-0.035553
-0.0360107
-0.0364685
-0.0370789
-0.0372314
-0.037384
-0.037384
-0.0369263
-0.0364685
-0.035553
-0.0346375
-0.0331116
-0.0315857
-0.0300598
-0.0282288
-0.0268555
-0.0256348
-0.0244141
-0.0233459
-0.022583
-0.0212097
-0.0202942
-0.0192261
-0.0183105
-0.0175476
-0.0164795
-0.0152588
-0.0143433
-0.0135803
-0.0125122
-0.0111389
-0.010376
-0.00900269
-0.00778198
-0.00732422
-0.0062561
-0.00595093
-0.00579834
-0.0050354
-0.00457764
-0.00457764
-0.00366211
-0.00335693
-0.00259399
-0.00167847
-0.000915527
0.000152588
0.00106812
0.00213623
0.00289917
0.00350952
0.00473022
0.00579834
0.00656128
0.00732422
0.00839233
0.00869751
0.0088501
0.00961304
0.00991821
0.0105286
0.0114441
0.0119019
0.0128174
0.0141907
0.0152588
0.0167847
0.0184631
0.0202942
0.0224304
0.0241089
0.0260925
0.0280762
0.0299072
0.0315857
0.0332642
0.0343323
0.0354004
0.0363159
0.0370789
0.037384
0.0382996
0.0389099
0.0392151
0.0395203
0.039978
0.0405884
0.0408936
0.0418091
0.0424194
0.0431824
0.0444031
0.045166
0.045929
0.0468445
0.0474548
0.0480652
0.0485229
0.0489807
0.0500488
0.0506592
0.0511169
0.0524902
0.0532532
0.0546265
0.0558472
0.0567627
0.0582886
0.0593567
0.059967
0.0610352
0.0622559
0.0627136
0.0630188
0.0631714
0.0630188
0.0627136
0.0621033
0.0614929
0.06073
0.0602722
0.059967
0.0602722
0.0604248
0.0613403
0.0622559
0.063324
0.0650024
0.0666809
0.0688171
0.0704956
0.072937
0.0750732
0.0767517
0.0784302
0.0799561
0.080719
0.0811768
0.0811768
0.0810242
0.0802612
0.0794983
0.0782776
0.0762939
0.0746155
0.0723267
0.0701904
0.067749
0.0650024
0.0621033
0.0588989
0.0556946
0.0523376
0.0491333
0.0456238
0.0421143
0.0387573
0.0352478
0.0315857
0.0285339
0.0248718
0.0216675
0.0189209
0.0161743
0.0131226
0.0106812
0.00839233
0.00595093
0.00335693
0.000762939
-0.00167847
-0.00457764
-0.00732422
-0.0111389
-0.0149536
-0.0187683
-0.0228882
-0.0276184
-0.0317383
-0.0363159
-0.0405884
-0.0453186
-0.0494385
-0.0535583
-0.057373
-0.0608826
-0.0639343
-0.0666809
-0.0689697
-0.0708008
-0.0723267
-0.0733948
-0.0743103
-0.0749207
-0.0753784
-0.0761414
-0.0765991
-0.0772095
-0.0779724
-0.078125
-0.0790405
-0.0796509
-0.0804138
-0.0819397
-0.08255
-0.0836182
-0.0842285
-0.0854492
-0.0865173
-0.0878906
-0.0889587
-0.0898743
-0.0909424
-0.0918579
-0.092926
-0.0938416
-0.0950623
-0.0958252
-0.0967407
-0.0970459
-0.0975037
-0.0976562
-0.0975037
-0.0973511
-0.0968933
-0.0961304
-0.0953674
-0.0949097
-0.0942993
-0.0938416
-0.0932312
-0.0926208
-0.0921631
-0.0921631
-0.0921631
-0.0927734
-0.0926208
-0.0935364
-0.0941467
-0.0944519
-0.0949097
-0.0950623
-0.0949097
-0.0944519
-0.0933838
-0.0924683
-0.091095
-0.0891113
-0.0874329
-0.0857544
-0.0840759
-0.0822449
-0.0808716
-0.0796509
-0.0785828
-0.0782776
-0.0776672
-0.0778198
-0.0776672
-0.0782776
-0.0784302
-0.0790405
-0.0798035
-0.0810242
-0.0813293
-0.0817871
-0.0819397
-0.0820923
-0.0808716
-0.0808716
-0.0801086
-0.0790405
-0.078125
-0.0772095
-0.0762939
-0.0750732
-0.0744629
-0.0735474
-0.0726318
-0.0714111
-0.0704956
-0.0692749
-0.0679016
-0.0663757
-0.0645447
-0.0630188
-0.0611877
-0.0596619
-0.0575256
-0.0564575
-0.0546265
-0.0531006
-0.0514221
-0.0498962
-0.0488281
-0.0479126
-0.0473022
-0.0466919
-0.0463867
-0.045929
-0.045929
-0.0460815
-0.0463867
-0.0466919
-0.0468445
-0.0471497
-0.0473022
-0.0476074
-0.0476074
-0.0479126
-0.0476074
-0.0479126
-0.0476074
-0.0476074
-0.04776
-0.0476074
-0.04776
-0.0482178
-0.0482178
-0.0483704
-0.0483704
-0.0482178
-0.04776
-0.04776
-0.0473022
-0.045929
-0.0456238
-0.0445557
-0.0434875
-0.0428772
-0.0419617
-0.0416565
-0.040741
-0.0408936
-0.040741
-0.0408936
-0.0416565
-0.0421143
-0.0428772
-0.0436401
-0.0445557
-0.045166
-0.045166
-0.0457764
-0.0457764
-0.0462341
-0.0454712
-0.0450134
-0.0439453
-0.0430298
-0.0418091
-0.0410461
-0.0401306
-0.0387573
-0.0378418
-0.037384
-0.0370789
-0.0367737
-0.0366211
-0.0361633
-0.0370789
-0.037384
-0.037384
-0.038147
-0.038147
-0.038147
-0.0384521
-0.0384521
-0.038147
-0.038147
-0.0379944
-0.038147
-0.0382996
-0.0378418
-0.0382996
-0.0390625
-0.0396729
-0.0401306
-0.0405884
-0.0411987
-0.0419617
-0.042572
-0.0430298
-0.0434875
-0.0437927
-0.0442505
-0.0445557
-0.0445557
-0.0445557
-0.0444031
-0.0440979
-0.0439453
-0.0437927
-0.0430298
-0.0424194
-0.0419617
-0.0418091
-0.0411987
-0.0408936
-0.0404358
-0.039978
-0.0395203
-0.0389099
-0.0382996
-0.0376892
-0.0376892
-0.0369263
-0.0361633
-0.0357056
-0.0352478
-0.0352478
-0.0350952
-0.0350952
-0.0350952
-0.0357056
-0.0363159
-0.0372314
-0.038147
-0.0387573
-0.0396729
-0.0401306
-0.039978
-0.0398254
-0.0393677
-0.0382996
-0.0370789
-0.0350952
-0.0323486
-0.0296021
-0.0263977
-0.0231934
-0.0198364
-0.0160217
-0.0126648
-0.0088501
-0.00534058
-0.00228882
0.0012207
0.00411987
0.00732422
0.00991821
0.012207
0.014801
0.0170898
0.0192261
0.0216675
0.0238037
0.0257874
0.027771
0.0297546
0.0323486
0.0346375
0.0367737
0.0390625
0.0410461
0.0434875
0.0460815
0.0485229
0.0518799
0.0550842
0.0584412
0.062561
0.0666809
0.0709534
0.0756836
0.0802612
0.0845337
0.0891113
0.0938416
0.0979614
0.102081
0.105133
0.107574
0.109711
0.110474
0.110474
0.109711
0.108185
0.10498
0.102234
0.0984192
0.0944519
0.0892639
0.0843811
0.0793457
0.0740051
0.0689697
0.0634766
0.0579834
0.0518799
0.0457764
0.0396729
0.0338745
0.0276184
0.0210571
0.0143433
0.00808716
0.0012207
-0.00579834
-0.0128174
-0.0198364
-0.0268555
-0.0340271
-0.040741
-0.0474548
-0.0538635
-0.0604248
-0.0660706
-0.0715637
-0.0764465
-0.0804138
-0.0845337
-0.0883484
-0.091095
-0.0938416
-0.0964355
-0.0985718
-0.100098
-0.101166
-0.101929
-0.102386
-0.102539
-0.102386
-0.102234
-0.101471
-0.100708
-0.0996399
-0.098877
-0.0978088
-0.0971985
-0.0965881
-0.0959778
-0.0956726
-0.0959778
-0.0958252
-0.0964355
-0.0970459
-0.098114
-0.0994873
-0.100098
-0.101166
-0.101929
-0.102844
-0.103302
-0.103302
-0.103455
-0.102997
-0.101929
-0.100861
-0.0996399
-0.0979614
-0.0961304
-0.0947571
-0.092926
-0.091095
-0.0897217
-0.0881958
-0.0871277
-0.0862122
-0.0852966
-0.0842285
-0.0842285
-0.0836182
-0.0834656
-0.0831604
-0.0830078
-0.0830078
-0.0830078
-0.0834656
-0.0840759
-0.085907
-0.087738
-0.0900269
-0.0930786
-0.0965881
-0.100555
-0.103912
-0.107422
-0.111237
-0.113678
-0.116272
-0.118103
-0.118103
-0.117645
-0.115356
-0.111389
-0.105438
-0.0975037
-0.0874329
-0.0750732
-0.059967
-0.0416565
-0.0201416
0.00518799
0.0337219
0.065155
0.100403
0.138855
0.180054
0.224762
0.272827
0.322723
0.376434
0.432281
0.488586
0.545197
0.599823
0.650787
0.696716
0.735474
0.766296
0.788422
0.801697
0.805817
0.800323
0.786591
0.764008
0.733185
0.693817
0.64682
0.591736
0.530396
0.462646
0.390472
0.314941
0.237579
0.160065
0.0840759
0.0111389
-0.0575256
-0.121155
-0.178528
-0.229034
-0.272675
-0.308685
-0.337982
-0.36026
-0.376434
-0.3862
-0.390625
-0.390167
-0.385742
-0.37796
-0.367584
-0.353851
-0.338287
-0.321198
-0.302734
-0.283966
-0.264435
-0.244904
-0.22583
-0.207672
-0.189972
-0.17334
-0.158539
-0.145416
-0.133362
-0.122986
-0.113373
-0.106049
-0.0993347
-0.0939941
-0.0897217
-0.0860596
-0.083313
-0.0814819
-0.0801086
-0.0793457
-0.0788879
-0.0790405
-0.0799561
-0.0805664
-0.0814819
-0.0828552
-0.0845337
-0.085907
-0.087738
-0.0889587
-0.090332
-0.091095
-0.0918579
-0.0924683
-0.0921631
-0.0920105
-0.0906372
-0.0892639
-0.0871277
-0.0852966
-0.0827026
-0.0802612
-0.0773621
-0.0743103
-0.0715637
-0.0694275
-0.0665283
-0.0646973
-0.0627136
-0.0608826
-0.0598145
-0.0592041
-0.0576782
-0.0569153
-0.0561523
-0.0556946
-0.0549316
-0.0543213
-0.0532532
-0.0524902
-0.0518799
-0.0508118
-0.0502014
-0.0488281
-0.0482178
-0.0471497
-0.0465393
-0.045929
-0.045166
-0.0445557
-0.0434875
-0.0431824
-0.042572
-0.0416565
-0.0405884
-0.0398254
-0.0382996
-0.0372314
-0.0360107
-0.0344849
-0.0335693
-0.032196
-0.0311279
-0.0297546
-0.0288391
-0.0279236
-0.0273132
-0.0262451
-0.0257874
-0.0253296
-0.0245667
-0.0239563
-0.0228882
-0.0228882
-0.0222778
-0.0215149
-0.020752
-0.0195312
-0.0189209
-0.017395
-0.0164795
-0.0154114
-0.0141907
-0.0132751
-0.0125122
-0.0120544
-0.0117493
-0.0114441
-0.0117493
-0.0114441
-0.0111389
-0.0109863
-0.0108337
-0.0100708
-0.00900269
-0.00808716
-0.00686646
-0.00534058
-0.00350952
-0.00198364
-0.000152588
0.0012207
0.00259399
0.00396729
0.00549316
0.00610352
0.00656128
0.00686646
0.00686646
0.0062561
0.00595093
0.00518799
0.00457764
0.00396729
0.00320435
0.00259399
0.00198364
0.00152588
0.000610352
0.000610352
0.000152588
-0.000152588
-0.000305176
-0.000305176
0.000305176
0.000762939
0.00137329
0.00274658
0.0038147
0.00549316
0.00732422
0.00915527
0.0115967
0.0138855
0.0164795
0.0189209
0.0221252
0.0248718
0.0282288
0.0311279
0.0338745
0.0361633
0.0386047
0.039978
0.0416565
0.0431824
0.0444031
0.0447083
0.0448608
0.0450134
0.0445557
0.0442505
0.0440979
0.0431824
0.043335
0.0430298
0.0431824
0.0434875
0.0436401
0.0447083
0.0450134
0.045929
0.0465393
0.0469971
0.0473022
0.0473022
0.0476074
0.0471497
0.0465393
0.0462341
0.0457764
0.0457764
0.045929
0.0454712
0.0457764
0.0457764
0.0465393
0.0471497
0.0480652
0.0491333
0.0498962
0.0514221
0.0527954
0.0543213
0.0549316
0.0566101
0.0576782
0.0582886
0.0593567
0.0598145
0.0604248
0.0604248
0.0613403
0.0614929
0.0616455
0.0622559
0.0627136
0.062561
0.0622559
0.0622559
0.0617981
0.0616455
0.0611877
0.0604248
0.0593567
0.0576782
0.0569153
0.0550842
0.0532532
0.0511169
0.0489807
0.0468445
0.0444031
0.0419617
0.0396729
0.0379944
0.035553
0.0334167
0.0311279
0.0292969
0.0270081
0.0250244
0.0234985
0.0212097
0.0189209
0.0164795
0.0140381
0.0120544
0.00946045
0.00671387
0.00411987
0.00167847
-0.000915527
-0.00350952
-0.00610352
-0.00854492
-0.0115967
-0.0141907
-0.0166321
-0.0192261
-0.0215149
-0.0244141
-0.0270081
-0.0292969
-0.032196
-0.0349426
-0.0378418
-0.0408936
-0.0436401
-0.0462341
-0.0486755
-0.0512695
-0.0534058
-0.055542
-0.0570679
-0.0582886
-0.0595093
-0.0604248
-0.0608826
-0.0613403
-0.0613403
-0.0619507
-0.0622559
-0.0624084
-0.062561
-0.063324
-0.0640869
-0.0650024
-0.0656128
-0.0669861
-0.0680542
-0.0691223
-0.070343
-0.070343
-0.0706482
-0.0706482
-0.0712585
-0.0708008
-0.0704956
-0.0700378
-0.0692749
-0.0683594
-0.0680542
-0.0671387
-0.0666809
-0.0660706
-0.065918
-0.0654602
-0.0654602
-0.0653076
-0.0653076
-0.0653076
-0.0654602
-0.065918
-0.0657654
-0.0656128
-0.0660706
-0.0657654
-0.0657654
-0.0654602
-0.065155
-0.0646973
-0.0640869
-0.063324
-0.0631714
-0.0624084
-0.0622559
-0.0614929
-0.0613403
-0.06073
-0.059967
-0.0596619
-0.0590515
-0.058136
-0.0569153
-0.055542
-0.0541687
-0.0523376
-0.0508118
-0.0495911
-0.0480652
-0.0465393
-0.045166
-0.0434875
-0.0427246
-0.0416565
-0.0402832
-0.0396729
-0.0387573
-0.0382996
-0.037384
-0.0367737
-0.0363159
-0.0357056
-0.035553
-0.0350952
-0.0340271
-0.0337219
-0.0331116
-0.0326538
-0.0317383
-0.0314331
-0.0308228
-0.0309753
-0.0306702
-0.0308228
-0.0312805
-0.0315857
-0.0320435
-0.0326538
-0.032196
-0.0325012
-0.0325012
-0.0318909
-0.0311279
-0.0306702
-0.0292969
-0.0283813
-0.0271606
-0.0256348
-0.0239563
-0.0231934
-0.0218201
-0.0209045
-0.0202942
-0.0192261
-0.0189209
-0.0183105
-0.0183105
-0.0180054
-0.018158
-0.0180054
-0.0180054
-0.0178528
-0.0175476
-0.0169373
-0.0169373
-0.0163269
-0.0157166
-0.0151062
-0.0140381
-0.0131226
-0.0123596
-0.0112915
-0.0105286
-0.0100708
-0.0102234
-0.010376
-0.0105286
-0.0108337
-0.0112915
-0.012207
-0.012207
-0.0125122
-0.01297
-0.0135803
-0.0132751
-0.01297
-0.0126648
-0.0125122
-0.012207
-0.0115967
-0.0114441
-0.0111389
-0.0105286
-0.0105286
-0.010376
-0.0105286
-0.0102234
-0.0100708
-0.010376
-0.0105286
-0.010376
-0.0102234
-0.00976562
-0.00900269
-0.00900269
-0.00793457
-0.00778198
-0.00686646
-0.00701904
-0.0062561
-0.00610352
-0.00595093
-0.00564575
-0.00564575
-0.00610352
-0.00656128
-0.00732422
-0.00778198
-0.00869751
-0.00930786
-0.010376
-0.0111389
-0.012207
-0.01297
-0.0140381
-0.0144958
-0.0149536
-0.015564
-0.0160217
-0.0161743
-0.0164795
-0.0166321
-0.0169373
-0.0172424
-0.0178528
-0.018158
-0.0184631
-0.0186157
-0.0187683
-0.0192261
-0.0193787
-0.0196838
-0.0193787
-0.0192261
-0.0187683
-0.0180054
-0.0172424
-0.0164795
-0.0157166
-0.0144958
-0.0140381
-0.0134277
-0.0128174
-0.0123596
-0.0119019
-0.012207
-0.0115967
-0.0114441
-0.0114441
-0.0106812
-0.00976562
-0.00854492
-0.00762939
-0.00595093
-0.00350952
-0.000915527
0.00213623
0.00488281
0.00854492
0.0120544
0.0161743
0.0193787
0.0231934
0.0265503
0.0302124
0.0335693
0.0369263
0.0396729
0.042572
0.045929
0.0482178
0.0506592
0.0534058
0.0552368
0.0572205
0.0595093
0.0614929
0.063324
0.0656128
0.0674438
0.0692749
0.0714111
0.0732422
0.0750732
0.0772095
0.0794983
0.0820923
0.0845337
0.0878906
0.0904846
0.0941467
0.0975037
0.101166
0.105286
0.1091
0.113525
0.117493
0.12085
0.123901
0.126038
0.127258
0.127563
0.126801
0.124512
0.121613
0.11734
0.113068
0.108185
0.102386
0.096283
0.0898743
0.0828552
0.0765991
0.0697327
0.0630188
0.0559998
0.0488281
0.0422668
0.0360107
0.0297546
0.0236511
0.0180054
0.0126648
0.00686646
0.0012207
-0.00427246
-0.0100708
-0.0164795
-0.0224304
-0.0285339
-0.0346375
-0.0402832
-0.0462341
-0.0523376
-0.057373
-0.0622559
-0.0671387
-0.0714111
-0.0753784
-0.0791931
-0.0827026
-0.085907
-0.0881958
-0.0906372
-0.092926
-0.0944519
-0.0958252
-0.0968933
-0.0976562
-0.0979614
-0.098114
-0.0976562
-0.0965881
-0.0956726
-0.0939941
-0.0927734
-0.0914001
-0.0898743
-0.0886536
-0.0872803
-0.0860596
-0.0848389
-0.0843811
-0.0839233
-0.0840759
-0.0836182
-0.0836182
-0.0842285
-0.0845337
-0.0846863
-0.085144
-0.085907
-0.0862122
-0.0863647
-0.0865173
-0.0860596
-0.0863647
-0.0854492
-0.0849915
-0.0840759
-0.083313
-0.0823975
-0.0813293
-0.0801086
-0.0790405
-0.0778198
-0.0769043
-0.075531
-0.0743103
-0.0730896
-0.0720215
-0.071106
-0.0698853
-0.0692749
-0.0683594
-0.0694275
-0.0697327
-0.0712585
-0.0730896
-0.0758362
-0.0787354
-0.0817871
-0.0849915
-0.088501
-0.0917053
-0.0947571
-0.0965881
-0.098114
-0.098114
-0.0967407
-0.0938416
-0.0891113
-0.0823975
-0.0738525
-0.0621033
-0.0469971
-0.0291443
-0.00747681
0.017395
0.0465393
0.0793457
0.115967
0.155792
0.198669
0.244904
0.294342
0.345917
0.400848
0.457306
0.514679
0.572205
0.627747
0.680084
0.727081
0.76828
0.800934
0.825806
0.841217
0.847931
0.845337
0.833435
0.812225
0.782623
0.743561
0.695801
0.639648
0.575867
0.505829
0.43045
0.35141
0.270081
0.188904
0.108948
0.0318909
-0.040741
-0.10849
-0.169525
-0.223236
-0.269623
-0.307617
-0.337982
-0.36026
-0.375061
-0.383148
-0.384979
-0.381927
-0.373993
-0.362396
-0.347443
-0.329895
-0.310211
-0.288849
-0.266724
-0.24353
-0.220947
-0.198669
-0.177002
-0.15686
-0.138245
-0.121155
-0.106049
-0.092926
-0.0816345
-0.0730896
-0.0662231
-0.0610352
-0.0572205
-0.0553894
-0.0541687
-0.0540161
-0.0547791
-0.0561523
-0.0572205
-0.0588989
-0.0604248
-0.0617981
-0.0631714
-0.0650024
-0.0657654
-0.0663757
-0.067749
-0.0679016
-0.0682068
-0.0683594
-0.0683594
-0.0683594
-0.0680542
-0.0672913
-0.0666809
-0.0656128
-0.0642395
-0.0624084
-0.0604248
-0.0587463
-0.0563049
-0.0541687
-0.0517273
-0.0492859
-0.0473022
-0.0454712
-0.0437927
-0.0422668
-0.0415039
-0.040741
-0.0404358
-0.0401306
-0.040741
-0.0408936
-0.0413513
-0.0421143
-0.042572
-0.042572
-0.0430298
-0.0430298
-0.0437927
-0.0430298
-0.0427246
-0.0419617
-0.0413513
-0.040741
-0.0390625
-0.0382996
-0.0370789
-0.0361633
-0.0352478
-0.0340271
-0.0335693
-0.032959
-0.0318909
-0.0311279
-0.0306702
-0.0294495
-0.0286865
-0.0279236
-0.0268555
-0.0262451
-0.0256348
-0.0248718
-0.0244141
-0.0239563
-0.0231934
-0.0230408
-0.0228882
-0.0230408
-0.0233459
-0.0233459
-0.0234985
-0.0233459
-0.0233459
-0.0233459
-0.0230408
-0.0222778
-0.0215149
-0.0201416
-0.0187683
-0.0169373
-0.0152588
-0.0128174
-0.0102234
-0.00808716
-0.00549316
-0.00305176
-0.000457764
0.00137329
0.00320435
0.00488281
0.00610352
0.00762939
0.00793457
0.00946045
0.00961304
0.010376
0.0111389
0.0115967
0.0125122
0.0132751
0.0141907
0.014801
0.0149536
0.0160217
0.0167847
0.0170898
0.017395
0.0178528
0.018158
0.0183105
0.018158
0.0186157
0.0189209
0.0193787
0.0201416
0.0204468
0.0213623
0.0222778
0.0233459
0.025177
0.0262451
0.0276184
0.0288391
0.0302124
0.0311279
0.0326538
0.0335693
0.0338745
0.0343323
0.0337219
0.0344849
0.0341797
0.0338745
0.0334167
0.0335693
0.0332642
0.0331116
0.0332642
0.0334167
0.0335693
0.0343323
0.0346375
0.035553
0.0361633
0.0376892
0.0386047
0.0396729
0.0410461
0.0422668
0.0440979
0.0457764
0.0474548
0.0495911
0.0514221
0.0535583
0.055542
0.0579834
0.059967
0.0624084
0.0646973
0.0671387
0.0691223
0.0709534
0.0723267
0.0735474
0.0746155
0.0750732
0.0752258
0.0749207
0.0746155
0.0741577
0.072937
0.0720215
0.071106
0.0700378
0.0691223
0.0686646
0.0680542
0.067749
0.0679016
0.0682068
0.0688171
0.0689697
0.0697327
0.0701904
0.0704956
0.0709534
0.0712585
0.071106
0.0708008
0.0704956
0.0701904
0.0698853
0.0694275
0.0686646
0.0682068
0.0682068
0.0672913
0.0668335
0.0668335
0.0663757
0.0654602
0.065155
0.0645447
0.0634766
0.062561
0.0614929
0.0598145
0.0582886
0.0563049
0.0543213
0.0521851
0.0498962
0.0476074
0.0448608
0.0421143
0.0395203
0.0369263
0.0337219
0.0305176
0.0273132
0.0236511
0.0201416
0.0161743
0.0125122
0.00900269
0.00442505
0.000305176
-0.00411987
-0.0088501
-0.0132751
-0.0175476
-0.0216675
-0.0257874
-0.0294495
-0.032959
-0.0357056
-0.0379944
-0.0404358
-0.042572
-0.0439453
-0.0453186
-0.0469971
-0.04776
-0.0485229
-0.0489807
-0.0500488
-0.0509644
-0.0520325
-0.052948
-0.0541687
-0.0552368
-0.0569153
-0.058136
-0.0595093
-0.0610352
-0.0619507
-0.062561
-0.0640869
-0.0646973
-0.0653076
-0.065918
-0.0663757
-0.0671387
-0.0675964
-0.068512
-0.0691223
-0.0700378
-0.0714111
-0.0726318
-0.0732422
-0.0740051
-0.0746155
-0.0750732
-0.0750732
-0.0749207
-0.0750732
-0.0743103
-0.0740051
-0.0735474
-0.0732422
-0.0724792
-0.0718689
-0.0715637
-0.0709534
-0.070343
-0.0704956
-0.070343
-0.0706482
-0.0708008
-0.071106
-0.0706482
-0.071106
-0.0712585
-0.0712585
-0.0708008
-0.0706482
-0.0701904
-0.0692749
-0.0683594
-0.0671387
-0.0660706
-0.0648499
-0.063324
-0.0619507
-0.0602722
-0.0593567
-0.0578308
-0.0566101
-0.0559998
-0.0550842
-0.0544739
-0.0535583
-0.0531006
-0.0526428
-0.0520325
-0.0509644
-0.0502014
-0.0494385
-0.0479126
-0.0469971
-0.0462341
-0.0448608
-0.0437927
-0.0431824
-0.0421143
-0.0416565
-0.0410461
-0.040741
-0.0402832
-0.039978
-0.0401306
-0.0398254
-0.0396729
-0.0390625
-0.0389099
-0.038147
-0.038147
-0.0376892
-0.0369263
-0.0363159
-0.0354004
-0.03479
-0.0341797
-0.0331116
-0.0325012
-0.0314331
-0.0312805
-0.0306702
-0.0297546
-0.0294495
-0.0285339
-0.0279236
-0.0271606
-0.0262451
-0.025177
-0.0239563
-0.022583
-0.0212097
-0.0196838
-0.0183105
-0.0164795
-0.0154114
-0.0140381
-0.012207
-0.0112915
-0.0102234
-0.00946045
-0.0088501
-0.00869751
-0.00839233
-0.00869751
-0.0088501
-0.00930786
-0.00930786
-0.00976562
-0.00946045
-0.00915527
-0.0088501
-0.00823975
-0.00778198
-0.00701904
-0.00671387
-0.00595093
-0.00534058
-0.00534058
-0.00518799
-0.00488281
-0.00473022
-0.00534058
-0.00549316
-0.00534058
-0.00534058
-0.00595093
-0.0062561
-0.00640869
-0.00610352
-0.0062561
-0.00595093
-0.00579834
-0.00549316
-0.00549316
-0.00534058
-0.0050354
-0.00473022
-0.00457764
-0.00442505
-0.00488281
-0.00518799
-0.00549316
-0.00595093
-0.00671387
-0.00656128
-0.00701904
-0.00762939
-0.00747681
-0.00762939
-0.00747681
-0.00686646
-0.00686646
-0.00656128
-0.00595093
-0.00595093
-0.00518799
-0.00473022
-0.00442505
-0.00366211
-0.0038147
-0.00335693
-0.00335693
-0.00411987
-0.00396729
-0.00442505
-0.00473022
-0.00488281
-0.00488281
-0.00488281
-0.00473022
-0.00442505
-0.00396729
-0.00350952
-0.00320435
-0.00244141
-0.00228882
-0.00183105
-0.00152588
-0.00183105
-0.00183105
-0.00259399
-0.00320435
-0.0038147
-0.00473022
-0.00518799
-0.00564575
-0.00564575
-0.00640869
-0.0062561
-0.00640869
-0.00610352
-0.00549316
-0.0050354
-0.00427246
-0.00320435
-0.00289917
-0.00228882
-0.00198364
-0.00137329
-0.00106812
-0.000762939
-0.000610352
-0.000610352
-0.000457764
-0.000305176
0.000152588
0.0
0.000305176
0.0012207
0.00183105
0.00259399
0.0038147
0.00488281
0.00656128
0.00793457
0.00976562
0.0112915
0.0134277
0.015564
0.0178528
0.0205994
0.0238037
0.0267029
0.030365
0.0341797
0.0376892
0.0410461
0.0448608
0.0491333
0.0531006
0.0569153
0.0610352
0.0645447
0.067749
0.0708008
0.0737
0.0761414
0.0782776
0.0798035
0.0811768
0.0820923
0.0828552
0.0834656
0.0839233
0.0840759
0.0846863
0.0857544
0.0874329
0.0897217
0.0926208
0.096283
0.100403
0.10498
0.110168
0.114899
0.120087
0.125275
0.130463
0.13504
0.140228
0.144653
0.148621
0.151672
0.153961
0.155029
0.15564
0.155182
0.153656
0.151367
0.148773
0.144806
0.140991
0.136414
0.131226
0.126038
0.120239
0.113983
0.107117
0.0996399
0.0918579
0.0837708
0.0758362
0.0672913
0.0592041
0.0509644
0.0427246
0.0361633
0.0285339
0.0213623
0.0151062
0.00823975
0.00152588
-0.00488281
-0.0112915
-0.0180054
-0.0244141
-0.0309753
-0.0378418
-0.0442505
-0.0509644
-0.0572205
-0.063324
-0.0688171
-0.0741577
-0.0784302
-0.0822449
-0.0852966
-0.0881958
-0.0900269
-0.0914001
-0.0920105
-0.0918579
-0.0917053
-0.090332
-0.0894165
-0.0880432
-0.0860596
-0.0843811
-0.08255
-0.0808716
-0.0796509
-0.078125
-0.0769043
-0.0761414
-0.0750732
-0.0747681
-0.0740051
-0.0737
-0.0733948
-0.0727844
-0.0727844
-0.0723267
-0.0721741
-0.0720215
-0.0714111
-0.0709534
-0.0701904
-0.0698853
-0.0701904
-0.0697327
-0.0697327
-0.0695801
-0.0694275
-0.0691223
-0.068512
-0.0686646
-0.0680542
-0.067749
-0.0672913
-0.0665283
-0.0656128
-0.0654602
-0.0648499
-0.0642395
-0.0642395
-0.0634766
-0.0642395
-0.0653076
-0.0665283
-0.068512
-0.0709534
-0.0738525
-0.0775146
-0.0810242
-0.085144
-0.0892639
-0.093689
-0.0973511
-0.100098
-0.102539
-0.10437
-0.104523
-0.103912
-0.101318
-0.0976562
-0.0918579
-0.0840759
-0.0746155
-0.0627136
-0.0476074
-0.0300598
-0.00823975
0.0175476
0.0465393
0.0796509
0.117493
0.158844
0.20401
0.253448
0.305939
0.362701
0.422363
0.484009
0.547791
0.611572
0.673676
0.73288
0.786438
0.833435
0.871887
0.901031
0.920258
0.929413
0.92865
0.917511
0.896301
0.864563
0.823212
0.77179
0.710754
0.64209
0.565491
0.482941
0.396118
0.306549
0.216217
0.127716
0.0418091
-0.0395203
-0.115814
-0.183716
-0.24353
-0.295105
-0.336914
-0.369568
-0.392609
-0.406952
-0.413208
-0.412445
-0.404816
-0.391846
-0.374298
-0.352936
-0.328979
-0.303345
-0.276489
-0.249023
-0.222168
-0.19577
-0.170898
-0.148773
-0.127869
-0.109863
-0.0944519
-0.0817871
-0.0712585
-0.0631714
-0.057373
-0.0535583
-0.0509644
-0.0497437
-0.0498962
-0.0509644
-0.0521851
-0.0541687
-0.0559998
-0.058136
-0.0602722
-0.0622559
-0.0640869
-0.0657654
-0.0675964
-0.0679016
-0.0692749
-0.0694275
-0.0695801
-0.0695801
-0.0692749
-0.0682068
-0.0669861
-0.0656128
-0.0643921
-0.062561
-0.0611877
-0.0596619
-0.0579834
-0.0567627
-0.055542
-0.0550842
-0.0540161
-0.0535583
-0.0531006
-0.0531006
-0.0527954
-0.0531006
-0.052948
-0.0524902
-0.0517273
-0.0511169
-0.0497437
-0.0486755
-0.0474548
-0.0465393
-0.045166
-0.0439453
-0.0427246
-0.0418091
-0.040741
-0.0398254
-0.0390625
-0.0387573
-0.0382996
-0.0376892
-0.0370789
-0.0364685
-0.0357056
-0.0352478
-0.0340271
-0.0334167
-0.0325012
-0.0320435
-0.0311279
-0.030365
-0.0300598
-0.0296021
-0.0289917
-0.0286865
-0.0286865
-0.0282288
-0.0279236
-0.0270081
-0.0265503
-0.0254822
-0.0248718
-0.0241089
-0.0231934
-0.022583
-0.0209045
-0.0193787
-0.0170898
-0.0151062
-0.0126648
-0.0102234
-0.00793457
-0.00534058
-0.00335693
-0.00106812
0.000457764
0.00152588
0.00183105
0.00198364
0.00213623
0.00152588
0.000762939
0.000152588
-0.000915527
-0.00167847
-0.00259399
-0.00335693
-0.00350952
-0.00366211
-0.00320435
-0.00320435
-0.00213623
-0.0012207
0.0
0.00106812
0.00259399
0.00411987
0.00549316
0.00671387
0.00808716
0.00976562
0.0111389
0.0123596
0.0135803
0.0146484
0.0158691
0.0172424
0.0183105
0.0195312
0.0204468
0.0210571
0.0218201
0.0224304
0.0231934
0.0234985
0.0238037
0.0238037
0.0239563
0.0239563
0.0239563
0.0239563
0.0241089
0.0239563
0.0250244
0.025177
0.0254822
0.0263977
0.0276184
0.0285339
0.0297546
0.0309753
0.032196
0.0337219
0.0350952
0.0364685
0.0379944
0.0393677
0.039978
0.0410461
0.0421143
0.0430298
0.0442505
0.0454712
0.0469971
0.0486755
0.0500488
0.0518799
0.0541687
0.0556946
0.0575256
0.0598145
0.062561
0.0640869
0.0662231
0.0680542
0.0697327
0.071106
0.0723267
0.0732422
0.0740051
0.0744629
0.0750732
0.0752258
0.0758362
0.0761414
0.0765991
0.0779724
0.0785828
0.0799561
0.0808716
0.0822449
0.083313
0.085144
0.0865173
0.0878906
0.0889587
0.0900269
0.0907898
0.0918579
0.0923157
0.0927734
0.0930786
0.0935364
0.0938416
0.0942993
0.0942993
0.0946045
0.0944519
0.0947571
0.0947571
0.0946045
0.093689
0.0933838
0.092926
0.0920105
0.0914001
0.0904846
0.0886536
0.0871277
0.0856018
0.0842285
0.0820923
0.0799561
0.0778198
0.0762939
0.0743103
0.0724792
0.071106
0.0688171
0.0672913
0.065155
0.062561
0.059967
0.0567627
0.0538635
0.0500488
0.0460815
0.0416565
0.0378418
0.032959
0.0283813
0.0239563
0.0189209
0.0140381
0.00900269
0.0050354
0.000762939
-0.00305176
-0.00686646
-0.00976562
-0.0131226
-0.0160217
-0.0189209
-0.0216675
-0.0242615
-0.0263977
-0.0288391
-0.0315857
-0.0340271
-0.0367737
-0.0392151
-0.0418091
-0.0444031
-0.0466919
-0.0488281
-0.0509644
-0.0532532
-0.0549316
-0.0567627
-0.0587463
-0.0598145
-0.0608826
-0.0614929
-0.0624084
-0.0636292
-0.0643921
-0.0653076
-0.0665283
-0.067749
-0.0688171
-0.0697327
-0.0706482
-0.0721741
-0.0727844
-0.0732422
-0.0735474
-0.0732422
-0.0727844
-0.0721741
-0.0715637
-0.0704956
-0.0691223
-0.0680542
-0.0666809
-0.0656128
-0.0645447
-0.0628662
-0.0624084
-0.0614929
-0.0602722
-0.0598145
-0.0596619
-0.0592041
-0.0585938
-0.0584412
-0.0582886
-0.058136
-0.0575256
-0.0575256
-0.0572205
-0.0570679
-0.0569153
-0.0566101
-0.0569153
-0.0570679
-0.057373
-0.057373
-0.0579834
-0.0584412
-0.0588989
-0.0592041
-0.0596619
-0.0595093
-0.0601196
-0.059967
-0.059967
-0.0593567
-0.0592041
-0.058136
-0.0575256
-0.0570679
-0.0564575
-0.0550842
-0.0541687
-0.0531006
-0.0515747
-0.0508118
-0.0502014
-0.0491333
-0.0482178
-0.0471497
-0.0465393
-0.0460815
-0.0453186
-0.0447083
-0.0440979
-0.0430298
-0.0415039
-0.0405884
-0.0392151
-0.0378418
-0.0366211
-0.0354004
-0.0341797
-0.0334167
-0.0325012
-0.0314331
-0.0312805
-0.0305176
-0.0296021
-0.0291443
-0.0283813
-0.0276184
-0.0268555
-0.0257874
-0.0247192
-0.0233459
-0.0224304
-0.0202942
-0.0184631
-0.0167847
-0.014801
-0.0137329
-0.0120544
-0.0109863
-0.0100708
-0.00961304
-0.00946045
-0.00976562
-0.0105286
-0.0108337
-0.0115967
-0.0126648
-0.0134277
-0.0140381
-0.0144958
-0.0146484
-0.0151062
-0.0154114
-0.0154114
-0.0154114
-0.0154114
-0.0154114
-0.0152588
-0.0151062
-0.0151062
-0.0146484
-0.0151062
-0.0151062
-0.0151062
-0.0149536
-0.014801
-0.0141907
-0.0143433
-0.0134277
-0.0128174
-0.0120544
-0.0112915
-0.0100708
-0.00915527
-0.00793457
-0.00701904
-0.0062561
-0.0050354
-0.00442505
-0.00396729
-0.00366211
-0.0038147
-0.0038147
-0.00411987
-0.0050354
-0.0050354
-0.00564575
-0.00595093
-0.00701904
-0.00717163
-0.00762939
-0.00854492
-0.00869751
-0.00915527
-0.00915527
-0.00930786
-0.00930786
-0.00930786
-0.00946045
-0.00976562
-0.00991821
-0.0105286
-0.0109863
-0.0115967
-0.0126648
-0.0131226
-0.0140381
-0.0144958
-0.0152588
-0.0157166
-0.0158691
-0.0154114
-0.015564
-0.0149536
-0.0144958
-0.0140381
-0.0137329
-0.0125122
-0.012207
-0.0112915
-0.0106812
-0.00961304
-0.00900269
-0.00869751
-0.00823975
-0.00793457
-0.00732422
-0.00732422
-0.00671387
-0.00640869
-0.00595093
-0.00595093
-0.00534058
-0.00473022
-0.00488281
-0.00473022
-0.00518799
-0.00534058
-0.00579834
-0.00686646
-0.00793457
-0.00930786
-0.0105286
-0.0120544
-0.0132751
-0.0146484
-0.0158691
-0.0164795
-0.0170898
-0.0175476
-0.0177002
-0.0175476
-0.0169373
-0.0160217
-0.0152588
-0.0140381
-0.0132751
-0.0115967
-0.0108337
-0.00976562
-0.0088501
-0.00839233
-0.00823975
-0.00823975
-0.00793457
-0.00778198
-0.00793457
-0.00854492
-0.00839233
-0.00869751
-0.00869751
-0.00854492
-0.00854492
-0.00839233
-0.00793457
-0.00762939
-0.00656128
-0.00595093
-0.00488281
-0.00366211
-0.00244141
-0.00106812
0.000762939
0.00228882
0.00427246
0.00686646
0.00946045
0.0120544
0.0149536
0.0183105
0.0212097
0.0247192
0.0285339
0.0314331
0.03479
0.0378418
0.0405884
0.0430298
0.0456238
0.0480652
0.0500488
0.0523376
0.0537109
0.0550842
0.0566101
0.0579834
0.059967
0.0616455
0.0634766
0.0656128
0.0683594
0.071106
0.0743103
0.0782776
0.0816345
0.0857544
0.090332
0.0949097
0.0994873
0.104218
0.1091
0.11322
0.117493
0.12085
0.123901
0.127106
0.129395
0.131378
0.132294
0.132904
0.133514
0.132599
0.131989
0.130768
0.128479
0.126343
0.123138
0.119781
0.115814
0.111694
0.107117
0.102234
0.0967407
0.0915527
0.085907
0.0799561
0.0740051
0.067749
0.0619507
0.0558472
0.0500488
0.0440979
0.0392151
0.0332642
0.0274658
0.0215149
0.015564
0.00961304
0.00320435
-0.00366211
-0.010376
-0.0175476
-0.0247192
-0.0318909
-0.0389099
-0.0456238
-0.0518799
-0.0575256
-0.0628662
-0.067749
-0.0715637
-0.0747681
-0.0773621
-0.0794983
-0.0810242
-0.0822449
-0.0827026
-0.0836182
-0.0840759
-0.0843811
-0.0843811
-0.0848389
-0.0852966
-0.0852966
-0.0854492
-0.0856018
-0.085907
-0.085907
-0.0857544
-0.0852966
-0.0849915
-0.0846863
-0.0839233
-0.083313
-0.0828552
-0.0822449
-0.0814819
-0.0808716
-0.0799561
-0.0794983
-0.0791931
-0.0782776
-0.0782776
-0.0778198
-0.0767517
-0.0762939
-0.0761414
-0.0746155
-0.0737
-0.0721741
-0.0712585
-0.0697327
-0.0683594
-0.0669861
-0.0656128
-0.0639343
-0.0628662
-0.0617981
-0.0608826
-0.0601196
-0.0598145
-0.059967
-0.0598145
-0.0605774
-0.0605774
-0.0616455
-0.0628662
-0.0643921
-0.0663757
-0.0686646
-0.0709534
-0.0740051
-0.0773621
-0.0810242
-0.0842285
-0.0872803
-0.0900269
-0.0923157
-0.0938416
-0.0950623
-0.09552
-0.0944519
-0.0927734
-0.0892639
-0.0842285
-0.0775146
-0.0682068
-0.055542
-0.0401306
-0.0202942
0.00350952
0.0312805
0.0637817
0.100555
0.141754
0.18692
0.235748
0.289001
0.344849
0.404663
0.467072
0.531006
0.595398
0.659332
0.720215
0.777283
0.827179
0.869598
0.90332
0.927124
0.940857
0.944214
0.937347
0.92041
0.892487
0.854187
0.805359
0.746613
0.678711
0.602264
0.518799
0.42984
0.33844
0.245514
0.153046
0.063324
-0.0219727
-0.101929
-0.17395
-0.237885
-0.293121
-0.33783
-0.373077
-0.398712
-0.414734
-0.422668
-0.422668
-0.415649
-0.403137
-0.385437
-0.364075
-0.340118
-0.313416
-0.285797
-0.256958
-0.228882
-0.201416
-0.175171
-0.151062
-0.128784
-0.109863
-0.092926
-0.0794983
-0.0682068
-0.0592041
-0.0527954
-0.0486755
-0.0469971
-0.0463867
-0.0479126
-0.050354
-0.0535583
-0.0575256
-0.0616455
-0.065918
-0.0701904
-0.0741577
-0.0773621
-0.0804138
-0.0823975
-0.0839233
-0.0846863
-0.0849915
-0.0846863
-0.0840759
-0.0828552
-0.0810242
-0.0794983
-0.0775146
-0.075531
-0.0737
-0.0718689
-0.0706482
-0.0692749
-0.068512
-0.0671387
-0.0662231
-0.0657654
-0.0650024
-0.0643921
-0.0634766
-0.0627136
-0.0621033
-0.0613403
-0.0610352
-0.0605774
-0.0602722
-0.0593567
-0.0588989
-0.0587463
-0.0579834
-0.0576782
-0.057373
-0.0564575
-0.0558472
-0.0547791
-0.0540161
-0.0527954
-0.0515747
-0.0502014
-0.0482178
-0.0463867
-0.0442505
-0.042572
-0.0402832
-0.0384521
-0.0366211
-0.0350952
-0.0335693
-0.0328064
-0.0323486
-0.0315857
-0.0309753
-0.0309753
-0.0305176
-0.0302124
-0.0305176
-0.0302124
-0.0300598
-0.0292969
-0.0289917
-0.0286865
-0.0282288
-0.027771
-0.0271606
-0.0267029
-0.0262451
-0.0254822
-0.0247192
-0.0245667
-0.0241089
-0.0234985
-0.0230408
-0.0231934
-0.022583
-0.0224304
-0.0221252
-0.0219727
-0.0215149
-0.020752
-0.0204468
-0.0190735
-0.0183105
-0.0170898
-0.015564
-0.0141907
-0.01297
-0.0114441
-0.0106812
-0.00961304
-0.00854492
-0.00808716
-0.00762939
-0.00717163
-0.00701904
-0.00671387
-0.0062561
-0.0062561
-0.00595093
-0.00534058
-0.00473022
-0.00427246
-0.00305176
-0.00183105
-0.00106812
0.000152588
0.00152588
0.00228882
0.00289917
0.0038147
0.00518799
0.00579834
0.00610352
0.00671387
0.00717163
0.00808716
0.00854492
0.00915527
0.00991821
0.0106812
0.0123596
0.0132751
0.0144958
0.0161743
0.0177002
0.0192261
0.020752
0.0224304
0.0234985
0.0248718
0.0260925
0.0271606
0.0280762
0.0292969
0.0306702
0.0315857
0.0323486
0.0337219
0.0350952
0.0364685
0.0379944
0.0395203
0.0405884
0.0421143
0.0442505
0.0457764
0.0474548
0.0494385
0.0508118
0.0523376
0.0534058
0.0541687
0.0561523
0.0567627
0.0575256
0.0592041
0.0598145
0.0608826
0.0621033
0.0631714
0.0648499
0.0662231
0.0679016
0.0694275
0.0715637
0.072937
0.0744629
0.0761414
0.0772095
0.0782776
0.0787354
0.0788879
0.0790405
0.0787354
0.0785828
0.078125
0.0775146
0.0772095
0.0770569
0.0765991
0.0767517
0.0767517
0.0770569
0.0775146
0.0784302
0.0788879
0.0796509
0.0802612
0.0811768
0.0820923
0.0827026
0.0828552
0.0828552
0.0831604
0.0828552
0.0828552
0.0827026
0.0819397
0.0811768
0.0801086
0.0785828
0.0773621
0.0756836
0.0738525
0.071106
0.0679016
0.0648499
0.0610352
0.0567627
0.0523376
0.0476074
0.0428772
0.0382996
0.0335693
0.0288391
0.0244141
0.019989
0.0157166
0.0114441
0.00823975
0.00442505
0.00106812
-0.00152588
-0.00411987
-0.00671387
-0.00930786
-0.0112915
-0.0134277
-0.0157166
-0.0180054
-0.0204468
-0.0228882
-0.0259399
-0.0283813
-0.0311279
-0.0340271
-0.0366211
-0.0393677
-0.0418091
-0.0437927
-0.0462341
-0.0480652
-0.0498962
-0.0512695
-0.052948
-0.0541687
-0.0553894
-0.0564575
-0.058136
-0.0592041
-0.0608826
-0.0622559
-0.0637817
-0.0657654
-0.0668335
-0.0691223
-0.0704956
-0.0724792
-0.0737
-0.0752258
-0.0761414
-0.0776672
-0.0784302
-0.0788879
-0.0793457
-0.0798035
-0.0799561
-0.0802612
-0.080719
-0.0814819
-0.0820923
-0.0828552
-0.0830078
-0.0845337
-0.0849915
-0.0856018
-0.085907
-0.0860596
-0.0857544
-0.085144
-0.0845337
-0.0836182
-0.0822449
-0.0810242
-0.0793457
-0.0778198
-0.0767517
-0.0750732
-0.0738525
-0.0723267
-0.0714111
-0.0706482
-0.0698853
-0.0691223
-0.0689697
-0.0680542
-0.0682068
-0.0679016
-0.0680542
-0.0680542
-0.0679016
-0.0680542
-0.0675964
-0.0679016
-0.0683594
-0.0686646
-0.0688171
-0.0686646
-0.0688171
-0.0692749
-0.0692749
-0.0694275
-0.0695801
-0.0698853
-0.0697327
-0.0691223
-0.0691223
-0.068512
-0.0682068
-0.0674438
-0.0663757
-0.0654602
-0.0637817
-0.0624084
-0.0608826
-0.0596619
-0.0576782
-0.0559998
-0.0543213
-0.0527954
-0.0515747
-0.050354
-0.0498962
-0.0491333
-0.0480652
-0.0474548
-0.0479126
-0.0476074
-0.04776
-0.0474548
-0.04776
-0.04776
-0.0474548
-0.0474548
-0.0473022
-0.0462341
-0.0462341
-0.0460815
-0.0454712
-0.0448608
-0.0450134
-0.045166
-0.0448608
-0.0450134
-0.045166
-0.0450134
-0.0448608
-0.0445557
-0.0437927
-0.0430298
-0.0421143
-0.0405884
-0.0398254
-0.0382996
-0.0369263
-0.0354004
-0.0341797
-0.032959
-0.0318909
-0.0311279
-0.0306702
-0.0300598
-0.0299072
-0.0297546
-0.0296021
-0.0297546
-0.0299072
-0.0292969
-0.0291443
-0.0289917
-0.0285339
-0.0285339
-0.0280762
-0.027771
-0.0274658
-0.0271606
-0.0267029
-0.0265503
-0.0262451
-0.0262451
-0.0265503
-0.0265503
-0.0268555
-0.0271606
-0.0270081
-0.0271606
-0.0273132
-0.0270081
-0.0262451
-0.0260925
-0.0259399
-0.0253296
-0.0247192
-0.0247192
-0.0242615
-0.0241089
-0.0244141
-0.0247192
-0.0250244
-0.0260925
-0.0267029
-0.0276184
-0.0288391
-0.0302124
-0.0311279
-0.0323486
-0.0340271
-0.0349426
-0.0361633
-0.0363159
-0.0369263
-0.0370789
-0.0369263
-0.0361633
-0.0357056
-0.0346375
-0.0340271
-0.0332642
-0.0323486
-0.0312805
-0.0308228
-0.0306702
-0.0299072
-0.0292969
-0.0288391
-0.0282288
-0.027771
-0.0279236
-0.0273132
-0.0273132
-0.0268555
-0.0265503
-0.0260925
-0.0260925
-0.0254822
-0.0256348
-0.0257874
-0.0257874
-0.0257874
-0.0260925
-0.0262451
-0.0267029
-0.027771
-0.0283813
-0.0291443
-0.0297546
-0.030365
-0.0309753
-0.0309753
-0.0305176
-0.0311279
-0.0305176
-0.0302124
-0.0299072
-0.0289917
-0.0289917
-0.0282288
-0.0280762
-0.0283813
-0.0280762
-0.0285339
-0.0289917
-0.0299072
-0.0306702
-0.0315857
-0.0323486
-0.0332642
-0.0338745
-0.0340271
-0.0341797
-0.0341797
-0.0343323
-0.0340271
-0.0338745
-0.0335693
-0.0331116
-0.0326538
-0.0323486
-0.0320435
-0.032196
-0.032196
-0.0325012
-0.0328064
-0.0334167
-0.0338745
-0.0341797
-0.03479
-0.0352478
-0.0357056
-0.0361633
-0.0369263
-0.037384
-0.038147
-0.0387573
-0.0389099
-0.0392151
-0.0395203
-0.0398254
-0.0398254
-0.0396729
-0.0398254
-0.0395203
-0.0390625
-0.0387573
-0.0382996
-0.038147
-0.0376892
-0.0367737
-0.0358582
-0.0337219
-0.0318909
-0.0296021
-0.0265503
-0.0231934
-0.0193787
-0.0158691
-0.0119019
-0.00778198
-0.00350952
0.000152588
0.00396729
0.00732422
0.0106812
0.0135803
0.0164795
0.0196838
0.0222778
0.025177
0.0280762
0.0305176
0.032959
0.035553
0.0376892
0.0398254
0.0413513
0.0428772
0.0437927
0.0444031
0.045929
0.0468445
0.0476074
0.0488281
0.050354
0.052948
0.0550842
0.0578308
0.0608826
0.0643921
0.0682068
0.0721741
0.0764465
0.0808716
0.0854492
0.0895691
0.093689
0.0971985
0.100403
0.102844
0.104218
0.104828
0.104218
0.103302
0.100861
0.0979614
0.0941467
0.0901794
0.0848389
0.0798035
0.0737
0.0675964
0.0611877
0.0546265
0.0479126
0.0413513
0.0343323
0.0274658
0.020752
0.0143433
0.00732422
0.000610352
-0.00579834
-0.0123596
-0.0187683
-0.025177
-0.0314331
-0.0375366
-0.0436401
-0.0502014
-0.0559998
-0.0614929
-0.0669861
-0.0720215
-0.0767517
-0.0802612
-0.0836182
-0.0871277
-0.0897217
-0.0924683
-0.0950623
-0.0975037
-0.0996399
-0.101929
-0.103912
-0.105591
-0.107117
-0.108337
-0.108948
-0.109406
-0.109558
-0.109711
-0.109406
-0.1091
-0.108337
-0.107422
-0.106812
-0.106201
-0.105133
-0.104523
-0.103912
-0.103302
-0.102997
-0.102539
-0.102081
-0.102081
-0.102081
-0.101776
-0.101776
-0.101624
-0.101166
-0.101013
-0.100403
-0.0999451
-0.0991821
-0.0987244
-0.0979614
-0.0970459
-0.0965881
-0.0958252
-0.0950623
-0.0946045
-0.0941467
-0.0939941
-0.0939941
-0.0938416
-0.0933838
-0.0932312
-0.0930786
-0.092926
-0.0921631
-0.0923157
-0.0920105
-0.0923157
-0.0923157
-0.0935364
-0.0949097
-0.0967407
-0.0993347
-0.102539
-0.106049
-0.109558
-0.113373
-0.116882
-0.120544
-0.123291
-0.12558
-0.126953
-0.126953
-0.125427
-0.122375
-0.117035
-0.110016
-0.100555
-0.0878906
-0.0723267
-0.0531006
-0.0306702
-0.00427246
0.0262451
0.059967
0.0975037
0.138702
0.183411
0.23056
0.280914
0.334778
0.391083
0.449524
0.509644
0.569763
0.628357
0.684204
0.734406
0.778503
0.813751
0.840607
0.857697
0.865021
0.862122
0.850525
0.829315
0.79834
0.758057
0.708466
0.65033
0.584412
0.510712
0.431519
0.348511
0.262909
0.176697
0.0915527
0.00930786
-0.0688171
-0.141144
-0.206909
-0.26413
-0.313721
-0.354309
-0.3862
-0.409851
-0.425262
-0.433655
-0.435181
-0.430756
-0.421143
-0.407257
-0.390167
-0.370026
-0.347443
-0.323181
-0.298615
-0.27359
-0.248413
-0.224152
-0.201721
-0.180817
-0.161591
-0.145111
-0.131226
-0.119324
-0.109863
-0.103149
-0.098114
-0.0949097
-0.0935364
-0.0932312
-0.0933838
-0.0946045
-0.0959778
-0.0970459
-0.0984192
-0.0991821
-0.0996399
-0.100098
-0.100403
-0.100098
-0.0999451
-0.0996399
-0.098114
-0.0968933
-0.0958252
-0.0946045
-0.093689
-0.0923157
-0.0917053
-0.0906372
-0.0897217
-0.0888062
-0.0880432
-0.0871277
-0.0862122
-0.0854492
-0.0843811
-0.0837708
-0.0820923
-0.0816345
-0.0811768
-0.080719
-0.0802612
-0.0805664
-0.080719
-0.080719
-0.0804138
-0.0805664
-0.080719
-0.0802612
-0.0801086
-0.0798035
-0.0794983
-0.0787354
-0.0779724
-0.0773621
-0.0764465
-0.0753784
-0.0746155
-0.0737
-0.072937
-0.0718689
-0.071106
-0.0704956
-0.0698853
-0.0689697
-0.0682068
-0.067749
-0.0671387
-0.0665283
-0.0653076
-0.0642395
-0.063324
-0.0617981
-0.0604248
-0.0593567
-0.058136
-0.0572205
-0.0558472
-0.0553894
-0.0544739
-0.0538635
-0.0535583
-0.0534058
-0.0537109
-0.0544739
-0.0549316
-0.055542
-0.0566101
-0.0569153
-0.057373
-0.058136
-0.0584412
-0.0590515
-0.0587463
-0.0584412
-0.0579834
-0.0572205
-0.0566101
-0.0550842
-0.0535583
-0.0520325
-0.0505066
-0.0485229
-0.0474548
-0.0460815
-0.0453186
-0.0442505
-0.0430298
-0.0421143
-0.0416565
-0.0408936
-0.0402832
-0.0390625
-0.0386047
-0.0376892
-0.0369263
-0.0363159
-0.0357056
-0.03479
-0.0340271
-0.0335693
-0.032959
-0.032959
-0.0325012
-0.0318909
-0.0318909
-0.0314331
-0.0309753
-0.0305176
-0.0299072
-0.0292969
-0.0285339
-0.0273132
-0.0265503
-0.0253296
-0.0244141
-0.0231934
-0.0224304
-0.0213623
-0.0205994
-0.0198364
-0.0190735
-0.0186157
-0.0183105
-0.0177002
-0.0172424
-0.0167847
-0.0164795
-0.015564
-0.0144958
-0.0137329
-0.0123596
-0.0102234
-0.00900269
-0.00701904
-0.0050354
-0.00274658
-0.000915527
0.000915527
0.00305176
0.00473022
0.00640869
0.00762939
0.00900269
0.00976562
0.00991821
0.0102234
0.0105286
0.0106812
0.010376
0.0102234
0.00991821
0.0100708
0.00991821
0.0102234
0.0108337
0.0117493
0.01297
0.0140381
0.0160217
0.0178528
0.0198364
0.0218201
0.0233459
0.0256348
0.0273132
0.0292969
0.0312805
0.032959
0.0350952
0.0372314
0.0392151
0.0415039
0.0437927
0.045929
0.0482178
0.0500488
0.0521851
0.0535583
0.0549316
0.0553894
0.0558472
0.0558472
0.0552368
0.0553894
0.0544739
0.0540161
0.052948
0.0523376
0.0518799
0.0509644
0.0506592
0.0505066
0.0506592
0.0505066
0.0506592
0.050354
0.0500488
0.050354
0.0497437
0.0491333
0.0480652
0.0469971
0.0450134
0.0427246
0.0398254
0.0379944
0.0349426
0.0312805
0.0273132
0.0234985
0.0193787
0.015564
0.0115967
0.00778198
0.00350952
0.0
-0.0038147
-0.00717163
-0.0112915
-0.0138855
-0.0180054
-0.0215149
-0.025177
-0.0289917
-0.0326538
-0.0361633
-0.0396729
-0.042572
-0.0460815
-0.0486755
-0.0518799
-0.0544739
-0.0567627
-0.0593567
-0.0617981
-0.0639343
-0.0663757
-0.068512
-0.0706482
-0.072937
-0.0749207
-0.0778198
-0.080719
-0.0836182
-0.0865173
-0.0897217
-0.0930786
-0.0956726
-0.0982666
-0.100861
-0.102844
-0.10437
-0.106201
-0.107117
-0.10788
-0.108643
-0.108795
-0.1091
-0.10849
-0.108032
-0.108032
-0.107727
-0.106964
-0.106964
-0.106201
-0.105896
-0.105438
-0.104523
-0.104065
-0.10376
-0.102997
-0.102386
-0.101318
-0.100861
-0.100555
-0.0999451
-0.100403
-0.100403
-0.101166
-0.101929
-0.102539
-0.104065
-0.10498
-0.107117
-0.108643
-0.110168
-0.111847
-0.113373
-0.114441
-0.115814
-0.116882
-0.11734
-0.118256
-0.118866
-0.119019
-0.119019
-0.119171
-0.118866
-0.117798
-0.117645
-0.11673
-0.115814
-0.115204
-0.113983
-0.11322
-0.11261
-0.111694
-0.110931
-0.109863
-0.108643
-0.107574
-0.106049
-0.10437
-0.102692
-0.101166
-0.0996399
-0.0976562
-0.0961304
-0.0950623
-0.093689
-0.092926
-0.0920105
-0.0917053
-0.0914001
-0.0907898
-0.0904846
-0.0900269
-0.0897217
-0.0892639
-0.0886536
-0.0878906
-0.0872803
-0.0863647
-0.0854492
-0.0848389
-0.0840759
-0.0830078
-0.0822449
-0.0810242
-0.0801086
-0.0793457
-0.0790405
-0.078125
-0.0778198
-0.0776672
-0.0769043
-0.0764465
-0.0762939
-0.075531
-0.0750732
-0.0743103
-0.0732422
-0.0721741
-0.0712585
-0.0698853
-0.0688171
-0.0679016
-0.0668335
-0.0665283
-0.0653076
-0.0654602
-0.0646973
-0.0650024
-0.065155
-0.0648499
-0.0646973
-0.0648499
-0.0643921
-0.0643921
-0.0642395
-0.0642395
-0.0639343
-0.0631714
-0.0617981
-0.0613403
-0.0598145
-0.0582886
-0.0569153
-0.0553894
-0.0541687
-0.0537109
-0.0532532
-0.0534058
-0.0537109
-0.0541687
-0.0546265
-0.0552368
-0.0559998
-0.0566101
-0.057373
-0.0575256
-0.058136
-0.058136
-0.0584412
-0.058136
-0.0578308
-0.0575256
-0.0569153
-0.0561523
-0.0556946
-0.0552368
-0.0547791
-0.0540161
-0.0541687
-0.0538635
-0.0538635
-0.0534058
-0.0531006
-0.052948
-0.0527954
-0.0526428
-0.0517273
-0.0509644
-0.0502014
-0.0494385
-0.0480652
-0.0466919
-0.0456238
-0.0445557
-0.0434875
-0.042572
-0.0419617
-0.0410461
-0.0413513
-0.0410461
-0.0411987
-0.0413513
-0.0415039
-0.0418091
-0.0419617
-0.0424194
-0.0424194
-0.0424194
-0.0422668
-0.0422668
-0.042572
-0.042572
-0.042572
-0.0431824
-0.0430298
-0.0434875
-0.0436401
-0.0436401
-0.0440979
-0.0445557
-0.0440979
-0.0442505
-0.0442505
-0.0440979
-0.0440979
-0.0436401
-0.0437927
-0.0434875
-0.0434875
-0.043335
-0.0434875
-0.0430298
-0.043335
-0.0431824
-0.0436401
-0.0436401
-0.0444031
-0.045166
-0.0462341
-0.0476074
-0.0486755
-0.0498962
-0.0509644
-0.0517273
-0.0526428
-0.0531006
-0.0531006
-0.0532532
-0.0532532
-0.0527954
-0.0517273
-0.0512695
-0.0511169
-0.0508118
-0.0498962
-0.0498962
-0.0494385
-0.0497437
-0.0500488
-0.0502014
-0.0508118
-0.0511169
-0.0514221
-0.0517273
-0.0517273
-0.0514221
-0.0511169
-0.0506592
-0.0497437
-0.0486755
-0.0480652
-0.0474548
-0.0462341
-0.0453186
-0.0442505
-0.0434875
-0.0428772
-0.042572
-0.0419617
-0.0419617
-0.0418091
-0.0413513
-0.0413513
-0.040741
-0.0398254
-0.0384521
-0.037384
-0.0352478
-0.0332642
-0.0309753
-0.0286865
-0.0260925
-0.0233459
-0.020752
-0.0180054
-0.0146484
-0.0117493
-0.00869751
-0.00579834
-0.00274658
0.000610352
0.00320435
0.00579834
0.00823975
0.010376
0.0125122
0.0143433
0.0158691
0.0180054
0.0198364
0.0213623
0.0228882
0.0239563
0.0257874
0.0271606
0.0282288
0.0299072
0.0311279
0.0335693
0.0363159
0.0392151
0.0424194
0.0468445
0.0518799
0.0569153
0.0631714
0.0686646
0.0753784
0.0811768
0.0874329
0.0935364
0.0994873
0.104675
0.109406
0.11261
0.115356
0.116425
0.116425
0.115662
0.11322
0.110168
0.106659
0.101624
0.0959778
0.0901794
0.0834656
0.0767517
0.0695801
0.0621033
0.0549316
0.0471497
0.0398254
0.0323486
0.0256348
0.018158
0.0117493
0.00488281
-0.00152588
-0.00808716
-0.0140381
-0.0201416
-0.0260925
-0.0320435
-0.0379944
-0.0430298
-0.0488281
-0.0543213
-0.0590515
-0.0640869
-0.0683594
-0.0727844
-0.0770569
-0.0805664
-0.0843811
-0.0880432
-0.0906372
-0.0933838
-0.09552
-0.0978088
-0.0996399
-0.101318
-0.102386
-0.103149
-0.10376
-0.10376
-0.103302
-0.102539
-0.101776
-0.100555
-0.0987244
-0.0973511
-0.096283
-0.0944519
-0.0927734
-0.0917053
-0.090332
-0.0898743
-0.0892639
-0.0888062
-0.0888062
-0.0894165
-0.0898743
-0.0904846
-0.0917053
-0.0918579
-0.092926
-0.0933838
-0.0939941
-0.0939941
-0.0939941
-0.0938416
-0.093689
-0.0930786
-0.0927734
-0.0921631
-0.0918579
-0.0915527
-0.091095
-0.0900269
-0.0892639
-0.0878906
-0.0865173
-0.0848389
-0.083313
-0.0813293
-0.0790405
-0.0767517
-0.0749207
-0.0724792
-0.0712585
-0.0701904
-0.0695801
-0.0698853
-0.0709534
-0.0724792
-0.0747681
-0.0773621
-0.0810242
-0.0843811
-0.0880432
-0.0915527
-0.0946045
-0.0968933
-0.0984192
-0.098877
-0.0973511
-0.0944519
-0.0898743
-0.0827026
-0.0737
-0.0614929
-0.0463867
-0.0279236
-0.00549316
0.0201416
0.0494385
0.0822449
0.118561
0.157776
0.200348
0.245209
0.292969
0.344086
0.397339
0.452728
0.509033
0.565338
0.619507
0.670471
0.715942
0.754852
0.785675
0.808105
0.821381
0.825958
0.82077
0.8078
0.78598
0.75592
0.717468
0.671234
0.617523
0.556641
0.489502
0.417328
0.341949
0.264587
0.186615
0.109863
0.0360107
-0.0346375
-0.0996399
-0.159302
-0.212402
-0.258179
-0.297241
-0.328522
-0.353394
-0.371399
-0.38269
-0.388641
-0.388794
-0.384827
-0.37674
-0.365143
-0.3508
-0.333405
-0.314331
-0.293579
-0.272675
-0.250244
-0.228882
-0.207214
-0.186157
-0.166168
-0.147705
-0.131226
-0.116119
-0.103149
-0.0923157
-0.0831604
-0.0761414
-0.0697327
-0.0662231
-0.0628662
-0.0605774
-0.0596619
-0.0592041
-0.0593567
-0.0596619
-0.0605774
-0.0624084
-0.0639343
-0.0653076
-0.0672913
-0.0691223
-0.0704956
-0.0720215
-0.0738525
-0.0749207
-0.0762939
-0.0772095
-0.0773621
-0.0779724
-0.0779724
-0.0770569
-0.0762939
-0.075531
-0.0744629
-0.0727844
-0.0712585
-0.0697327
-0.0683594
-0.0663757
-0.0645447
-0.0631714
-0.0619507
-0.06073
-0.059967
-0.0593567
-0.0584412
-0.058136
-0.0572205
-0.0570679
-0.0566101
-0.0559998
-0.0559998
-0.0552368
-0.0546265
-0.0541687
-0.0532532
-0.0520325
-0.0512695
-0.0505066
-0.0502014
-0.0492859
-0.0485229
-0.04776
-0.0474548
-0.0468445
-0.0463867
-0.0456238
-0.0453186
-0.0445557
-0.0437927
-0.042572
-0.0415039
-0.039978
-0.0387573
-0.0376892
-0.0360107
-0.03479
-0.0337219
-0.0323486
-0.0314331
-0.0306702
-0.0296021
-0.0291443
-0.0282288
-0.0273132
-0.0262451
-0.0250244
-0.0242615
-0.0231934
-0.0221252
-0.020752
-0.0196838
-0.0178528
-0.0163269
-0.0151062
-0.0137329
-0.0123596
-0.0112915
-0.0102234
-0.00915527
-0.00854492
-0.00808716
-0.00823975
-0.00793457
-0.00793457
-0.00854492
-0.00854492
-0.00869751
-0.00915527
-0.00976562
-0.00946045
-0.00915527
-0.00900269
-0.00854492
-0.00808716
-0.00671387
-0.00549316
-0.00442505
-0.00350952
-0.00228882
-0.00137329
-0.00106812
-0.000152588
0.000457764
0.00137329
0.00137329
0.00213623
0.00320435
0.00396729
0.00488281
0.00610352
0.00747681
0.0088501
0.0100708
0.0112915
0.012207
0.0135803
0.0141907
0.0152588
0.0157166
0.0160217
0.0163269
0.0163269
0.0158691
0.0161743
0.015564
0.0154114
0.0154114
0.0160217
0.0167847
0.0177002
0.0184631
0.019989
0.0218201
0.0228882
0.0247192
0.0265503
0.0280762
0.0300598
0.0317383
0.0328064
0.0337219
0.0346375
0.0354004
0.0357056
0.035553
0.035553
0.0354004
0.035553
0.0350952
0.0354004
0.0352478
0.0357056
0.0360107
0.0367737
0.0375366
0.0389099
0.0396729
0.0410461
0.0422668
0.043335
0.0448608
0.0456238
0.0465393
0.0473022
0.0480652
0.0488281
0.0498962
0.0506592
0.0514221
0.0521851
0.0534058
0.0541687
0.055542
0.0570679
0.0575256
0.0579834
0.0588989
0.0595093
0.0595093
0.0598145
0.0596619
0.0595093
0.0593567
0.0592041
0.0588989
0.0585938
0.0585938
0.058136
0.0585938
0.058136
0.0582886
0.058136
0.0582886
0.0579834
0.058136
0.058136
0.058136
0.058136
0.0579834
0.0576782
0.0570679
0.0561523
0.0561523
0.0547791
0.0543213
0.0531006
0.0523376
0.0512695
0.0500488
0.0482178
0.0471497
0.045166
0.0434875
0.0415039
0.0398254
0.0376892
0.0350952
0.0328064
0.0302124
0.0271606
0.0241089
0.0204468
0.0167847
0.0128174
0.00854492
0.00442505
0.000915527
-0.00320435
-0.00686646
-0.0105286
-0.0134277
-0.0163269
-0.0189209
-0.0210571
-0.0236511
-0.0260925
-0.0285339
-0.0311279
-0.0334167
-0.0360107
-0.0392151
-0.0415039
-0.0445557
-0.0466919
-0.0489807
-0.0508118
-0.0523376
-0.0535583
-0.0549316
-0.055542
-0.0558472
-0.0566101
-0.0567627
-0.0567627
-0.0567627
-0.0566101
-0.0563049
-0.0556946
-0.0553894
-0.0553894
-0.0556946
-0.0556946
-0.0567627
-0.0570679
-0.0584412
-0.0593567
-0.0608826
-0.0622559
-0.0639343
-0.065155
-0.0660706
-0.0674438
-0.067749
-0.0689697
-0.0691223
-0.0692749
-0.0689697
-0.0689697
-0.0689697
-0.0688171
-0.0691223
-0.0691223
-0.0692749
-0.0694275
-0.0691223
-0.0694275
-0.0695801
-0.0691223
-0.0691223
-0.0688171
-0.068512
-0.0680542
-0.067749
-0.0669861
-0.0666809
-0.0669861
-0.0666809
-0.0666809
-0.0666809
-0.0669861
-0.0668335
-0.0672913
-0.0668335
-0.0665283
-0.0662231
-0.0663757
-0.0654602
-0.0653076
-0.0645447
-0.0634766
-0.0628662
-0.0616455
-0.0604248
-0.0588989
-0.0572205
-0.0558472
-0.0543213
-0.052948
-0.0518799
-0.0505066
-0.0497437
-0.0486755
-0.0483704
-0.04776
-0.0476074
-0.0469971
-0.0468445
-0.0465393
-0.0463867
-0.0453186
-0.0445557
-0.0431824
-0.0418091
-0.0398254
-0.0390625
-0.0375366
-0.0358582
-0.0346375
-0.0334167
-0.0320435
-0.0311279
-0.0299072
-0.0294495
-0.0288391
-0.0285339
-0.0282288
-0.027771
-0.027771
-0.0271606
-0.0271606
-0.0268555
-0.0263977
-0.0260925
-0.025177
-0.0245667
-0.0241089
-0.0234985
-0.0230408
-0.0222778
-0.0224304
-0.0221252
-0.022583
-0.0222778
-0.0224304
-0.0222778
-0.0222778
-0.0216675
-0.0212097
-0.020752
-0.019989
-0.0190735
-0.0186157
-0.0177002
-0.0169373
-0.0163269
-0.0161743
-0.0157166
-0.0152588
-0.0158691
-0.0158691
-0.0160217
-0.0167847
-0.0175476
-0.0183105
-0.0189209
-0.019989
-0.0201416
-0.020752
-0.0204468
-0.0201416
-0.0198364
-0.0190735
-0.0180054
-0.0169373
-0.015564
-0.0143433
-0.01297
-0.0114441
-0.00961304
-0.00900269
-0.00793457
-0.00701904
-0.00656128
-0.0062561
-0.00595093
-0.00610352
-0.00671387
-0.00717163
-0.00793457
-0.00823975
-0.00854492
-0.00930786
-0.00991821
-0.010376
-0.0111389
-0.0114441
-0.0120544
-0.0131226
-0.0137329
-0.014801
-0.015564
-0.0166321
-0.017395
-0.018158
-0.0187683
-0.0190735
-0.0193787
-0.0195312
-0.0196838
-0.0189209
-0.0178528
-0.0170898
-0.0158691
-0.0143433
-0.0125122
-0.0109863
-0.00976562
-0.00839233
-0.00701904
-0.00640869
-0.00564575
-0.00579834
-0.00579834
-0.00610352
-0.00640869
-0.00717163
-0.00778198
-0.00854492
-0.0088501
-0.00961304
-0.00991821
-0.0102234
-0.0109863
-0.0112915
-0.0114441
-0.0117493
-0.0115967
-0.0120544
-0.0120544
-0.0119019
-0.0119019
-0.0119019
-0.0117493
-0.0117493
-0.0114441
-0.0114441
-0.0114441
-0.0112915
-0.0112915
-0.0111389
-0.0105286
-0.010376
-0.010376
-0.0102234
-0.00976562
-0.00976562
-0.00961304
-0.00946045
-0.00976562
-0.00976562
-0.0105286
-0.010376
-0.0109863
-0.0112915
-0.0114441
-0.0112915
-0.0108337
-0.0106812
-0.00991821
-0.00869751
-0.00793457
-0.00686646
-0.00579834
-0.00457764
-0.00335693
-0.00259399
-0.00152588
-0.000457764
-0.000152588
0.000305176
0.000610352
-0.000305176
-0.000305176
-0.000915527
-0.0012207
-0.00152588
-0.00183105
-0.00183105
-0.0012207
-0.000762939
0.000152588
0.00152588
0.00320435
0.00488281
0.00732422
0.010376
0.0128174
0.0160217
0.0192261
0.0227356
0.0263977
0.0300598
0.0337219
0.037384
0.0402832
0.0440979
0.04776
0.0509644
0.0544739
0.057373
0.0604248
0.0631714
0.0660706
0.0686646
0.0709534
0.0730896
0.075531
0.0772095
0.0791931
0.0808716
0.0823975
0.0836182
0.0846863
0.0862122
0.087738
0.0898743
0.0926208
0.0958252
0.0993347
0.103912
0.108185
0.112762
0.117493
0.122986
0.127716
0.132294
0.136719
0.141144
0.144501
0.147247
0.148773
0.149536
0.149078
0.147247
0.145264
0.142059
0.138397
0.134583
0.130005
0.125427
0.120239
0.115051
0.109863
0.103912
0.0979614
0.0918579
0.0856018
0.0787354
0.0717163
0.0650024
0.0576782
0.0505066
0.0439453
0.0369263
0.0300598
0.0231934
0.0158691
0.00961304
0.00259399
-0.00427246
-0.0108337
-0.0178528
-0.0238037
-0.030365
-0.0364685
-0.0422668
-0.0479126
-0.0524902
-0.0572205
-0.0616455
-0.0656128
-0.0692749
-0.0723267
-0.0747681
-0.0769043
-0.0790405
-0.0804138
-0.0817871
-0.0827026
-0.0834656
-0.0836182
-0.0840759
-0.0840759
-0.0837708
-0.0834656
-0.0836182
-0.0830078
-0.0823975
-0.0822449
-0.0827026
-0.0834656
-0.0839233
-0.0845337
-0.0848389
-0.0852966
-0.0862122
-0.0865173
-0.0869751
-0.0872803
-0.0871277
-0.0868225
-0.0862122
-0.0852966
-0.0837708
-0.0822449
-0.0804138
-0.0787354
-0.0772095
-0.075531
-0.0737
-0.0720215
-0.070343
-0.0692749
-0.0675964
-0.0665283
-0.0653076
-0.0645447
-0.063324
-0.062561
-0.0619507
-0.0608826
-0.0605774
-0.06073
-0.0613403
-0.0619507
-0.0634766
-0.065918
-0.0688171
-0.0717163
-0.0756836
-0.0791931
-0.0836182
-0.0874329
-0.0918579
-0.0950623
-0.0979614
-0.100098
-0.101166
-0.101013
-0.0991821
-0.096283
-0.0912476
-0.0842285
-0.0753784
-0.0640869
-0.0505066
-0.0332642
-0.01297
0.0106812
0.0376892
0.0683594
0.101929
0.139923
0.180969
0.224762
0.272064
0.322418
0.376129
0.432892
0.49118
0.55069
0.609283
0.666046
0.718689
0.765991
0.805664
0.836792
0.858459
0.870819
0.873718
0.867462
0.850677
0.825806
0.79071
0.746918
0.693817
0.632324
0.56366
0.488892
0.40863
0.326538
0.241852
0.157928
0.0758362
-0.00244141
-0.0764465
-0.144196
-0.204468
-0.257568
-0.302582
-0.338745
-0.367126
-0.387421
-0.39978
-0.405273
-0.404816
-0.398407
-0.387268
-0.372314
-0.353546
-0.332031
-0.308838
-0.284271
-0.258484
-0.233154
-0.20813
-0.184326
-0.161591
-0.140991
-0.122223
-0.105743
-0.0915527
-0.0798035
-0.0706482
-0.0630188
-0.0582886
-0.0544739
-0.0521851
-0.0515747
-0.0509644
-0.0512695
-0.0527954
-0.0538635
-0.0561523
-0.0578308
-0.059967
-0.0613403
-0.0624084
-0.0640869
-0.0645447
-0.0653076
-0.0650024
-0.0646973
-0.0639343
-0.0631714
-0.0619507
-0.06073
-0.0593567
-0.057373
-0.0556946
-0.0532532
-0.0512695
-0.0492859
-0.0474548
-0.0453186
-0.0437927
-0.0421143
-0.0408936
-0.039978
-0.0395203
-0.0386047
-0.0384521
-0.0386047
-0.0386047
-0.0387573
-0.0392151
-0.0392151
-0.0393677
-0.0392151
-0.0387573
-0.0384521
-0.0375366
-0.0366211
-0.0352478
-0.0337219
-0.0328064
-0.0318909
-0.030365
-0.0294495
-0.0288391
-0.0279236
-0.0274658
-0.0268555
-0.0268555
-0.0260925
-0.0256348
-0.0253296
-0.0245667
-0.0239563
-0.0233459
-0.0219727
-0.0212097
-0.0201416
-0.0184631
-0.0178528
-0.0163269
-0.0151062
-0.0137329
-0.0131226
-0.0120544
-0.0111389
-0.0100708
-0.00961304
-0.0088501
-0.0088501
-0.00793457
-0.00732422
-0.00701904
-0.00686646
-0.00579834
-0.00549316
-0.0050354
-0.0038147
-0.00320435
-0.00228882
-0.00183105
-0.0012207
-0.000610352
0.0
0.000915527
0.000915527
0.000762939
0.00106812
0.00106812
0.000915527
0.000762939
0.000762939
0.000610352
0.00137329
0.00167847
0.00198364
0.00274658
0.00396729
0.0050354
0.00595093
0.00762939
0.00869751
0.00991821
0.0109863
0.0120544
0.0128174
0.0132751
0.0135803
0.0143433
0.0146484
0.0152588
0.0152588
0.0157166
0.0163269
0.0167847
0.0178528
0.0186157
0.0198364
0.020752
0.0218201
0.0228882
0.0239563
0.0250244
0.0253296
0.0257874
0.0263977
0.0271606
0.0274658
0.0282288
0.0286865
0.0297546
0.0305176
0.0317383
0.0326538
0.0343323
0.0363159
0.0378418
0.0395203
0.040741
0.042572
0.0444031
0.0463867
0.04776
0.0489807
0.050354
0.0509644
0.0518799
0.0523376
0.052948
0.0540161
0.0543213
0.0550842
0.0558472
0.0569153
0.0575256
0.0588989
0.0602722
0.0624084
0.0639343
0.065918
0.0675964
0.0694275
0.0718689
0.0737
0.0752258
0.0773621
0.078125
0.0794983
0.0805664
0.0819397
0.08255
0.0837708
0.0845337
0.0852966
0.0862122
0.0871277
0.0872803
0.0880432
0.088501
0.0889587
0.0894165
0.0897217
0.0895691
0.0900269
0.0894165
0.0895691
0.0892639
0.0892639
0.0892639
0.0888062
0.088501
0.088501
0.0880432
0.0880432
0.0881958
0.088501
0.0883484
0.0888062
0.0889587
0.0883484
0.0886536
0.0880432
0.0872803
0.0863647
0.0849915
0.0830078
0.0813293
0.0790405
0.0764465
0.0741577
0.0714111
0.0689697
0.065918
0.0634766
0.06073
0.0585938
0.0559998
0.0534058
0.0509644
0.0483704
0.0457764
0.042572
0.0398254
0.0370789
0.0335693
0.0299072
0.0260925
0.0222778
0.0184631
0.0140381
0.010376
0.00656128
0.00305176
-0.000610352
-0.00366211
-0.00717163
-0.0100708
-0.0126648
-0.0146484
-0.0169373
-0.0192261
-0.0215149
-0.0234985
-0.0253296
-0.0276184
-0.0297546
-0.0320435
-0.0343323
-0.0363159
-0.0386047
-0.040741
-0.0422668
-0.0444031
-0.0457764
-0.0468445
-0.04776
-0.0489807
-0.0495911
-0.0502014
-0.0512695
-0.0514221
-0.0520325
-0.0523376
-0.0527954
-0.0532532
-0.0541687
-0.0546265
-0.0556946
-0.0566101
-0.0572205
-0.0579834
-0.0590515
-0.0598145
-0.0601196
-0.0611877
-0.0613403
-0.0616455
-0.0617981
-0.0617981
-0.0617981
-0.0616455
-0.0616455
-0.0614929
-0.0619507
-0.0621033
-0.0622559
-0.0622559
-0.0622559
-0.0622559
-0.0617981
-0.0614929
-0.0608826
-0.0602722
-0.0593567
-0.0578308
-0.0570679
-0.0559998
-0.0544739
-0.0532532
-0.0518799
-0.0506592
-0.0500488
-0.0489807
-0.0482178
-0.04776
-0.0476074
-0.04776
-0.0485229
-0.0489807
-0.0497437
-0.0506592
-0.0512695
-0.0518799
-0.0518799
-0.0515747
-0.0512695
-0.0505066
-0.0497437
-0.0486755
-0.04776
-0.0460815
-0.0445557
-0.0428772
-0.0411987
-0.0393677
-0.0379944
-0.0361633
-0.0349426
-0.0328064
-0.0317383
-0.0302124
-0.0288391
-0.027771
-0.0267029
-0.0253296
-0.0244141
-0.0233459
-0.022583
-0.0218201
-0.0213623
-0.020752
-0.0209045
-0.020752
-0.020752
-0.0212097
-0.0218201
-0.0224304
-0.0233459
-0.0239563
-0.0247192
-0.0253296
-0.0257874
-0.0260925
-0.0262451
-0.0257874
-0.0254822
-0.0244141
-0.0233459
-0.0219727
-0.0209045
-0.0195312
-0.018158
-0.0167847
-0.0157166
-0.0146484
-0.0140381
-0.0134277
-0.01297
-0.0123596
-0.012207
-0.0117493
-0.0111389
-0.0109863
-0.0106812
-0.0105286
-0.00976562
-0.00976562
-0.00930786
-0.00900269
-0.00869751
-0.00900269
-0.00808716
-0.00839233
-0.00823975
-0.00839233
-0.00869751
-0.00869751
-0.00900269
-0.00930786
-0.00961304
-0.00961304
-0.00946045
-0.00961304
-0.00900269
-0.00839233
-0.00793457
-0.00671387
-0.0062561
-0.00473022
-0.00366211
-0.00244141
-0.0012207
-0.000152588
0.000457764
0.00106812
0.00137329
0.0012207
0.00167847
0.00183105
0.00198364
0.00213623
0.00244141
0.00198364
0.00183105
0.00183105
0.00137329
0.00152588
0.00106812
0.0012207
0.00106812
0.000762939
0.000457764
0.000457764
-0.000152588
-0.000610352
-0.0012207
-0.00198364
-0.00228882
-0.00305176
-0.00350952
-0.0038147
-0.00411987
-0.00427246
-0.00427246
-0.00366211
-0.00320435
-0.00244141
-0.00152588
-0.000305176
0.000457764
0.0012207
0.00198364
0.00244141
0.00213623
0.00228882
0.00183105
0.00106812
0.000762939
-0.000610352
-0.00183105
-0.00366211
-0.00534058
-0.00656128
-0.00823975
-0.00915527
-0.0102234
-0.0109863
-0.0112915
-0.0119019
-0.012207
-0.0123596
-0.0120544
-0.0120544
-0.0125122
-0.0120544
-0.0117493
-0.0117493
-0.0115967
-0.0112915
-0.0111389
-0.0106812
-0.0102234
-0.0100708
-0.00930786
-0.00823975
-0.00732422
-0.00686646
-0.00610352
-0.00534058
-0.00473022
-0.00427246
-0.00457764
-0.00488281
-0.00534058
-0.00610352
-0.00686646
-0.00839233
-0.00946045
-0.0108337
-0.0119019
-0.0134277
-0.0146484
-0.0160217
-0.0166321
-0.017395
-0.0186157
-0.0184631
-0.0187683
-0.0189209
-0.0186157
-0.0187683
-0.0178528
-0.0177002
-0.0172424
-0.0175476
-0.0169373
-0.0164795
-0.0166321
-0.0163269
-0.0158691
-0.0157166
-0.0151062
-0.0140381
-0.0132751
-0.0125122
-0.0114441
-0.0108337
-0.0100708
-0.00946045
-0.00900269
-0.00854492
-0.00808716
-0.00778198
-0.00778198
-0.00823975
-0.00854492
-0.00961304
-0.0102234
-0.0111389
-0.0115967
-0.0126648
-0.0131226
-0.0138855
-0.0143433
-0.0143433
-0.0138855
-0.0131226
-0.0120544
-0.0105286
-0.0088501
-0.00671387
-0.00442505
-0.00167847
0.000915527
0.00350952
0.0062561
0.00930786
0.0126648
0.0160217
0.0196838
0.0231934
0.0274658
0.0312805
0.0354004
0.0395203
0.0430298
0.0471497
0.0505066
0.0538635
0.0570679
0.059967
0.0624084
0.0643921
0.065918
0.0669861
0.0679016
0.0686646
0.0689697
0.0695801
0.0694275
0.0700378
0.0708008
0.0720215
0.0733948
0.0747681
0.0775146
0.0802612
0.0839233
0.0883484
0.0932312
0.0979614
0.103455
0.108795
0.113983
0.118866
0.123444
0.127411
0.131226
0.134735
0.137024
0.138397
0.139313
0.139008
0.137939
0.136108
0.133057
0.130005
0.125732
0.12146
0.115814
0.110626
0.104523
0.0984192
0.0918579
0.0845337
0.0776672
0.0701904
0.062561
0.0547791
0.04776
0.0401306
0.0334167
0.0271606
0.020752
0.0149536
0.00915527
0.0038147
-0.00152588
-0.00671387
-0.0119019
-0.0175476
-0.022583
-0.0279236
-0.0337219
-0.0389099
-0.0447083
-0.0502014
-0.0553894
-0.0604248
-0.0648499
-0.0691223
-0.0727844
-0.0764465
-0.0787354
-0.0811768
-0.08255
-0.0834656
-0.085144
-0.0856018
-0.0865173
-0.0868225
-0.0868225
-0.0872803
-0.087738
-0.0878906
-0.088501
-0.0891113
-0.0894165
-0.0900269
-0.0901794
-0.0907898
-0.0907898
-0.0907898
-0.090332
-0.0898743
-0.0894165
-0.0888062
-0.0880432
-0.0874329
-0.0868225
-0.0862122
-0.0854492
-0.0846863
-0.0837708
-0.0828552
-0.0823975
-0.0816345
-0.0811768
-0.0810242
-0.0804138
-0.0798035
-0.0790405
-0.0785828
-0.0775146
-0.0762939
-0.0746155
-0.0735474
-0.0718689
-0.0700378
-0.0686646
-0.0674438
-0.0660706
-0.0650024
-0.0646973
-0.0648499
-0.0656128
-0.0665283
-0.0691223
-0.0714111
-0.0743103
-0.0779724
-0.0816345
-0.0856018
-0.0894165
-0.0932312
-0.0961304
-0.098877
-0.100555
-0.101318
-0.100708
-0.0990295
-0.0956726
-0.090332
-0.0836182
-0.0747681
-0.0627136
-0.0479126
-0.0291443
-0.00717163
0.0196838
0.0498962
0.0848389
0.124054
0.167084
0.213928
0.264893
0.319214
0.37735
0.438232
0.501709
0.565643
0.630035
0.692139
0.749969
0.802307
0.847168
0.882721
0.909119
0.925598
0.931244
0.927582
0.912781
0.888367
0.853577
0.808716
0.753937
0.690002
0.618134
0.539246
0.454559
0.366058
0.275574
0.185089
0.0961304
0.0105286
-0.0701904
-0.14389
-0.210724
-0.268402
-0.316467
-0.354919
-0.383759
-0.403595
-0.415192
-0.418243
-0.414276
-0.40451
-0.388947
-0.369568
-0.34668
-0.320892
-0.293579
-0.265656
-0.237274
-0.209656
-0.183716
-0.159302
-0.136719
-0.116272
-0.098877
-0.083313
-0.0709534
-0.0605774
-0.0527954
-0.0471497
-0.0430298
-0.0405884
-0.0393677
-0.0395203
-0.0402832
-0.0418091
-0.0434875
-0.0456238
-0.0480652
-0.0498962
-0.0518799
-0.0540161
-0.0556946
-0.0575256
-0.0592041
-0.0598145
-0.0605774
-0.0610352
-0.06073
-0.0596619
-0.0587463
-0.0572205
-0.0559998
-0.0541687
-0.0531006
-0.0514221
-0.050354
-0.0486755
-0.0479126
-0.0469971
-0.0462341
-0.0457764
-0.0447083
-0.0445557
-0.0444031
-0.0440979
-0.0439453
-0.0436401
-0.0430298
-0.042572
-0.0418091
-0.0408936
-0.039978
-0.0390625
-0.0378418
-0.0370789
-0.0358582
-0.0344849
-0.0334167
-0.0326538
-0.0314331
-0.0308228
-0.0296021
-0.0292969
-0.0283813
-0.0276184
-0.0267029
-0.0257874
-0.0247192
-0.0234985
-0.022583
-0.0209045
-0.0195312
-0.0183105
-0.0170898
-0.0157166
-0.0144958
-0.0138855
-0.0131226
-0.0125122
-0.012207
-0.012207
-0.0120544
-0.0119019
-0.0119019
-0.0115967
-0.0112915
-0.0109863
-0.010376
-0.00976562
-0.00854492
-0.00778198
-0.00701904
-0.00595093
-0.00549316
-0.00427246
-0.00366211
-0.00320435
-0.00274658
-0.00244141
-0.00274658
-0.00274658
-0.00366211
-0.00366211
-0.00396729
-0.00427246
-0.00457764
-0.00457764
-0.00396729
-0.0038147
-0.00305176
-0.00198364
-0.0012207
-0.000457764
0.000915527
0.00198364
0.00320435
0.00411987
0.00473022
0.00579834
0.0062561
0.00671387
0.00747681
0.00747681
0.00793457
0.00854492
0.00854492
0.0088501
0.00915527
0.00991821
0.0105286
0.0109863
0.012207
0.0128174
0.0137329
0.0149536
0.0161743
0.0169373
0.018158
0.0193787
0.0201416
0.0210571
0.0222778
0.0231934
0.0241089
0.0253296
0.0265503
0.0279236
0.0292969
0.0306702
0.0326538
0.0346375
0.0363159
0.0378418
0.0393677
0.040741
0.0419617
0.0431824
0.0448608
0.0457764
0.0466919
0.0476074
0.0480652
0.0492859
0.0500488
0.0505066
0.0515747
0.0524902
0.0537109
0.0549316
0.0567627
0.058136
0.0593567
0.0614929
0.0631714
0.0650024
0.0663757
0.0679016
0.0694275
0.0704956
0.0717163
0.0723267
0.072937
0.0735474
0.0740051
0.0746155
0.0752258
0.0752258
0.0761414
0.0767517
0.0772095
0.0784302
0.0791931
0.0802612
0.0808716
0.0822449
0.08255
0.0837708
0.0846863
0.0856018
0.0862122
0.0868225
0.0872803
0.0878906
0.0883484
0.0889587
0.0895691
0.0900269
0.091095
0.0920105
0.0932312
0.0946045
0.0952148
0.0964355
0.0971985
0.098114
0.0982666
0.0982666
0.0984192
0.0976562
0.0970459
0.096283
0.09552
0.0941467
0.0927734
0.091095
0.0892639
0.0874329
0.0856018
0.0839233
0.0822449
0.0801086
0.0782776
0.0761414
0.0738525
0.0715637
0.0688171
0.0657654
0.062561
0.0587463
0.0549316
0.050354
0.0463867
0.0416565
0.0376892
0.032959
0.0286865
0.0242615
0.0202942
0.0161743
0.0117493
0.00778198
0.00396729
-0.000152588
-0.00427246
-0.00808716
-0.0117493
-0.015564
-0.0196838
-0.0233459
-0.0276184
-0.0314331
-0.0361633
-0.039978
-0.0434875
-0.0471497
-0.050354
-0.0532532
-0.055542
-0.0575256
-0.0593567
-0.0610352
-0.0621033
-0.0628662
-0.063324
-0.0643921
-0.065155
-0.0654602
-0.065918
-0.0668335
-0.0672913
-0.067749
-0.0689697
-0.0692749
-0.0701904
-0.0708008
-0.0718689
-0.0726318
-0.072937
-0.0737
-0.0744629
-0.0746155
-0.0752258
-0.0752258
-0.075531
-0.075531
-0.075531
-0.0756836
-0.075531
-0.0753784
-0.075531
-0.0752258
-0.0749207
-0.0747681
-0.0743103
-0.0735474
-0.0726318
-0.0717163
-0.070343
-0.0686646
-0.0669861
-0.0653076
-0.063324
-0.0613403
-0.0593567
-0.0576782
-0.0564575
-0.0553894
-0.0541687
-0.0537109
-0.0534058
-0.0534058
-0.0540161
-0.0544739
-0.0549316
-0.0556946
-0.0558472
-0.0563049
-0.0563049
-0.0567627
-0.0567627
-0.0567627
-0.0569153
-0.0570679
-0.0569153
-0.0567627
-0.0564575
-0.0559998
-0.0558472
-0.055542
-0.0553894
-0.0552368
-0.0547791
-0.0543213
-0.0541687
-0.0535583
-0.0524902
-0.0518799
-0.0506592
-0.0494385
-0.0474548
-0.0462341
-0.0442505
-0.0428772
-0.0413513
-0.0398254
-0.0386047
-0.0378418
-0.037384
-0.0369263
-0.0366211
-0.0366211
-0.0364685
-0.0372314
-0.0375366
-0.0378418
-0.0379944
-0.0382996
-0.0384521
-0.0386047
-0.0387573
-0.0384521
-0.038147
-0.0375366
-0.0367737
-0.0360107
-0.0352478
-0.0346375
-0.0338745
-0.0331116
-0.0326538
-0.0320435
-0.0320435
-0.0314331
-0.0309753
-0.0306702
-0.0300598
-0.0291443
-0.0283813
-0.0270081
-0.0260925
-0.0254822
-0.0244141
-0.0236511
-0.0228882
-0.0219727
-0.0209045
-0.0204468
-0.019989
-0.0196838
-0.0192261
-0.0192261
-0.0195312
-0.019989
-0.0201416
-0.0204468
-0.020752
-0.0205994
-0.0210571
-0.0209045
-0.020752
-0.0205994
-0.019989
-0.019989
-0.0193787
-0.0187683
-0.0183105
-0.0177002
-0.0175476
-0.0167847
-0.0166321
-0.0161743
-0.0161743
-0.015564
-0.014801
-0.0138855
-0.0135803
-0.0128174
-0.0117493
-0.0108337
-0.00976562
-0.00869751
-0.00762939
-0.00640869
-0.00579834
-0.00518799
-0.00457764
-0.00442505
-0.00442505
-0.00488281
-0.00579834
-0.00640869
-0.00717163
-0.00854492
-0.00961304
-0.010376
-0.0117493
-0.0123596
-0.0126648
-0.0132751
-0.0131226
-0.01297
-0.0131226
-0.0126648
-0.012207
-0.0115967
-0.0117493
-0.0111389
-0.0109863
-0.0109863
-0.0105286
-0.0108337
-0.0109863
-0.0112915
-0.0117493
-0.0125122
-0.0128174
-0.0134277
-0.0134277
-0.0137329
-0.0140381
-0.0144958
-0.0144958
-0.0146484
-0.0151062
-0.015564
-0.0160217
-0.0160217
-0.0163269
-0.0164795
-0.0164795
-0.0169373
-0.0169373
-0.0167847
-0.0163269
-0.0157166
-0.015564
-0.0149536
-0.0143433
-0.0137329
-0.0126648
-0.0114441
-0.010376
-0.00946045
-0.00869751
-0.00747681
-0.00717163
-0.00686646
-0.00671387
-0.00686646
-0.00762939
-0.00839233
-0.00915527
-0.0105286
-0.0123596
-0.0132751
-0.0152588
-0.0166321
-0.0178528
-0.0189209
-0.019989
-0.0204468
-0.0210571
-0.0212097
-0.0210571
-0.0212097
-0.0209045
-0.020752
-0.0205994
-0.0202942
-0.0201416
-0.0202942
-0.0198364
-0.0198364
-0.0195312
-0.0186157
-0.018158
-0.017395
-0.0160217
-0.0151062
-0.0141907
-0.01297
-0.0123596
-0.0115967
-0.0108337
-0.0105286
-0.0105286
-0.010376
-0.0105286
-0.0108337
-0.0119019
-0.0126648
-0.0134277
-0.0141907
-0.0151062
-0.0160217
-0.0164795
-0.0166321
-0.0169373
-0.0169373
-0.0170898
-0.0166321
-0.0169373
-0.0164795
-0.0163269
-0.0158691
-0.015564
-0.0151062
-0.0151062
-0.0154114
-0.0152588
-0.0154114
-0.0154114
-0.015564
-0.0154114
-0.014801
-0.0140381
-0.0125122
-0.0109863
-0.00839233
-0.00610352
-0.00335693
0.0
0.00335693
0.00762939
0.0115967
0.0161743
0.0202942
0.0247192
0.0286865
0.0328064
0.0367737
0.0395203
0.0428772
0.0460815
0.0491333
0.0520325
0.0544739
0.0569153
0.0593567
0.0610352
0.0631714
0.0640869
0.0654602
0.0666809
0.067749
0.0689697
0.0698853
0.0712585
0.0723267
0.0738525
0.0750732
0.0765991
0.0785828
0.0811768
0.0843811
0.0880432
0.0918579
0.0968933
0.101776
0.107727
0.113068
0.118561
0.123596
0.128937
0.134125
0.138092
0.141144
0.143738
0.144958
0.144958
0.144196
0.142059
0.139313
0.135651
0.131378
0.125732
0.120392
0.114136
0.108185
0.101624
0.0949097
0.087738
0.0811768
0.0744629
0.0671387
0.0604248
0.0531006
0.0463867
0.0396729
0.0335693
0.0273132
0.0210571
0.0149536
0.00930786
0.00411987
-0.00106812
-0.00656128
-0.0114441
-0.0166321
-0.0215149
-0.0262451
-0.0311279
-0.0357056
-0.0402832
-0.0450134
-0.0489807
-0.052948
-0.057373
-0.0614929
-0.065155
-0.0689697
-0.0717163
-0.0752258
-0.0776672
-0.0798035
-0.0814819
-0.0830078
-0.083313
-0.0839233
-0.0837708
-0.0837708
-0.0836182
-0.0827026
-0.0819397
-0.0810242
-0.0802612
-0.0788879
-0.078125
-0.0769043
-0.0761414
-0.0750732
-0.0741577
-0.072937
-0.0723267
-0.0717163
-0.0709534
-0.0700378
-0.0692749
-0.0689697
-0.0688171
-0.0679016
-0.0674438
-0.0671387
-0.0665283
-0.065918
-0.0656128
-0.0654602
-0.0656128
-0.0656128
-0.0663757
-0.0666809
-0.0668335
-0.0671387
-0.0674438
-0.0674438
-0.0675964
-0.0675964
-0.0666809
-0.0663757
-0.0653076
-0.065155
-0.0643921
-0.0642395
-0.0646973
-0.0654602
-0.0669861
-0.0688171
-0.0714111
-0.0749207
-0.0782776
-0.0817871
-0.0852966
-0.0898743
-0.0923157
-0.09552
-0.0973511
-0.0985718
-0.0985718
-0.0967407
-0.0933838
-0.0886536
-0.0817871
-0.0723267
-0.0602722
-0.045929
-0.027771
-0.00640869
0.0192261
0.0480652
0.0811768
0.118256
0.159149
0.20401
0.251923
0.304718
0.36026
0.419769
0.48111
0.544586
0.608063
0.670013
0.729523
0.783081
0.829926
0.868073
0.897522
0.916443
0.925446
0.924377
0.912628
0.891113
0.858917
0.81604
0.763855
0.702057
0.631714
0.554657
0.470886
0.383301
0.293427
0.2034
0.114288
0.0285339
-0.0527954
-0.127869
-0.19516
-0.254822
-0.305023
-0.346069
-0.377655
-0.400238
-0.413971
-0.419769
-0.418701
-0.410767
-0.397644
-0.379639
-0.358429
-0.333862
-0.307159
-0.278931
-0.250702
-0.222626
-0.195312
-0.169525
-0.145874
-0.124664
-0.105438
-0.0894165
-0.0759888
-0.0653076
-0.0575256
-0.0512695
-0.04776
-0.0457764
-0.0457764
-0.0462341
-0.0480652
-0.0502014
-0.0524902
-0.0553894
-0.0579834
-0.0608826
-0.063324
-0.065918
-0.0683594
-0.0701904
-0.0720215
-0.072937
-0.0741577
-0.0746155
-0.0747681
-0.0741577
-0.0733948
-0.0724792
-0.0712585
-0.0697327
-0.0679016
-0.0656128
-0.0627136
-0.0602722
-0.057373
-0.0543213
-0.0514221
-0.0483704
-0.0457764
-0.0430298
-0.0405884
-0.0387573
-0.0370789
-0.0354004
-0.0343323
-0.0332642
-0.032959
-0.0325012
-0.032196
-0.0317383
-0.0315857
-0.0311279
-0.0311279
-0.0308228
-0.0305176
-0.0300598
-0.0299072
-0.0294495
-0.0288391
-0.0288391
-0.0285339
-0.0285339
-0.0283813
-0.0283813
-0.0282288
-0.0280762
-0.027771
-0.0274658
-0.0271606
-0.0260925
-0.0247192
-0.0238037
-0.0227356
-0.0215149
-0.0205994
-0.0193787
-0.0184631
-0.017395
-0.0164795
-0.0158691
-0.0151062
-0.0144958
-0.0144958
-0.0143433
-0.0137329
-0.0137329
-0.0134277
-0.0132751
-0.0128174
-0.0119019
-0.0111389
-0.0102234
-0.00854492
-0.00778198
-0.00656128
-0.00579834
-0.00534058
-0.0050354
-0.00411987
-0.0038147
-0.00396729
-0.0038147
-0.00396729
-0.00396729
-0.00427246
-0.00442505
-0.00488281
-0.00549316
-0.00564575
-0.00610352
-0.00595093
-0.00595093
-0.00579834
-0.00473022
-0.00442505
-0.00366211
-0.00244141
-0.00137329
-0.000610352
0.000457764
0.00106812
0.00198364
0.00305176
0.00366211
0.00442505
0.00518799
0.00595093
0.00671387
0.00762939
0.00900269
0.0100708
0.0112915
0.0125122
0.0144958
0.0160217
0.0172424
0.0183105
0.0196838
0.0204468
0.0212097
0.0215149
0.0218201
0.0218201
0.0215149
0.0216675
0.0221252
0.0215149
0.0216675
0.0219727
0.0227356
0.0227356
0.0234985
0.0245667
0.0253296
0.0262451
0.0280762
0.0289917
0.0302124
0.0317383
0.032959
0.0346375
0.035553
0.0367737
0.0384521
0.0395203
0.0404358
0.0416565
0.0430298
0.0445557
0.0460815
0.0474548
0.0489807
0.0506592
0.0523376
0.0543213
0.0559998
0.0578308
0.0588989
0.0605774
0.0622559
0.063324
0.0642395
0.0648499
0.065155
0.0657654
0.0662231
0.0668335
0.0668335
0.067749
0.0683594
0.0689697
0.0695801
0.070343
0.0714111
0.0721741
0.0735474
0.0743103
0.0753784
0.0758362
0.0770569
0.0770569
0.0778198
0.0782776
0.0787354
0.0787354
0.0785828
0.0791931
0.0791931
0.0794983
0.0794983
0.0798035
0.0801086
0.0805664
0.0805664
0.0814819
0.0819397
0.0822449
0.0820923
0.0827026
0.08255
0.0822449
0.0814819
0.080719
0.0798035
0.0782776
0.0775146
0.0753784
0.0738525
0.0723267
0.0704956
0.0686646
0.0663757
0.0645447
0.0621033
0.0598145
0.0567627
0.0540161
0.0505066
0.0469971
0.0430298
0.0393677
0.0352478
0.0306702
0.0260925
0.0212097
0.0164795
0.0115967
0.00656128
0.00183105
-0.00320435
-0.00762939
-0.012207
-0.0164795
-0.0202942
-0.0238037
-0.0270081
-0.0300598
-0.0325012
-0.0349426
-0.0369263
-0.0384521
-0.0405884
-0.042572
-0.0439453
-0.0457764
-0.0473022
-0.0488281
-0.050354
-0.0512695
-0.0521851
-0.0526428
-0.0532532
-0.0534058
-0.0535583
-0.0540161
-0.0547791
-0.0550842
-0.0556946
-0.0566101
-0.0578308
-0.0593567
-0.0605774
-0.0627136
-0.0639343
-0.065155
-0.0666809
-0.0675964
-0.0686646
-0.0692749
-0.0692749
-0.0695801
-0.0694275
-0.0688171
-0.0683594
-0.0674438
-0.0668335
-0.0663757
-0.0657654
-0.0656128
-0.0654602
-0.0656128
-0.0656128
-0.0660706
-0.0663757
-0.0672913
-0.0680542
-0.0686646
-0.0694275
-0.0700378
-0.0701904
-0.0701904
-0.0700378
-0.0698853
-0.0695801
-0.0688171
-0.0679016
-0.0675964
-0.0666809
-0.0662231
-0.0656128
-0.065155
-0.065155
-0.0648499
-0.0650024
-0.0648499
-0.0645447
-0.0650024
-0.0653076
-0.0648499
-0.0642395
-0.0639343
-0.0631714
-0.062561
-0.0617981
-0.0608826
-0.059967
-0.0587463
-0.0576782
-0.0564575
-0.0553894
-0.0540161
-0.0527954
-0.0517273
-0.0505066
-0.0488281
-0.0476074
-0.0463867
-0.045166
-0.043335
-0.0421143
-0.0405884
-0.0390625
-0.0376892
-0.0364685
-0.0350952
-0.0340271
-0.0332642
-0.0326538
-0.0320435
-0.032196
-0.0317383
-0.0317383
-0.0320435
-0.032196
-0.0325012
-0.032959
-0.0334167
-0.0334167
-0.0334167
-0.0331116
-0.0328064
-0.0318909
-0.0311279
-0.0299072
-0.0286865
-0.027771
-0.0260925
-0.0242615
-0.022583
-0.0213623
-0.0204468
-0.0189209
-0.0177002
-0.0175476
-0.0172424
-0.0172424
-0.0172424
-0.017395
-0.0175476
-0.0172424
-0.0170898
-0.0169373
-0.0167847
-0.0166321
-0.0164795
-0.0164795
-0.0163269
-0.0161743
-0.0166321
-0.0170898
-0.0175476
-0.0178528
-0.0183105
-0.0187683
-0.0195312
-0.0195312
-0.019989
-0.019989
-0.0196838
-0.0195312
-0.0190735
-0.0184631
-0.0172424
-0.0167847
-0.0160217
-0.0152588
-0.0146484
-0.0135803
-0.01297
-0.01297
-0.0126648
-0.0125122
-0.0123596
-0.0128174
-0.01297
-0.0134277
-0.0132751
-0.0141907
-0.0146484
-0.0152588
-0.0158691
-0.0158691
-0.0157166
-0.0158691
-0.015564
-0.0152588
-0.0154114
-0.014801
-0.0149536
-0.014801
-0.0146484
-0.0154114
-0.0163269
-0.0161743
-0.0167847
-0.0177002
-0.0184631
-0.0192261
-0.0192261
-0.0195312
-0.0198364
-0.0201416
-0.0201416
-0.0202942
-0.019989
-0.0202942
-0.0202942
-0.0209045
-0.0215149
-0.0218201
-0.0228882
-0.0239563
-0.0253296
-0.0267029
-0.027771
-0.0292969
-0.0300598
-0.0314331
-0.032196
-0.0325012
-0.032959
-0.032959
-0.0323486
-0.0320435
-0.0314331
-0.0308228
-0.030365
-0.0292969
-0.0288391
-0.027771
-0.0274658
-0.0268555
-0.0262451
-0.0262451
-0.0259399
-0.0260925
-0.0256348
-0.0256348
-0.025177
-0.0250244
-0.0250244
-0.0247192
-0.0244141
-0.0239563
-0.0238037
-0.0233459
-0.0233459
-0.022583
-0.0227356
-0.0230408
-0.0227356
-0.0228882
-0.0233459
-0.0236511
-0.0239563
-0.0245667
-0.0245667
-0.0247192
-0.0250244
-0.0250244
-0.0248718
-0.0253296
-0.0253296
-0.0253296
-0.0259399
-0.0262451
-0.0267029
-0.0270081
-0.0274658
-0.0280762
-0.0289917
-0.0300598
-0.0309753
-0.032196
-0.0332642
-0.0343323
-0.0354004
-0.0357056
-0.0363159
-0.0364685
-0.0361633
-0.0357056
-0.0346375
-0.0343323
-0.0337219
-0.0326538
-0.0323486
-0.0315857
-0.0314331
-0.0315857
-0.0317383
-0.0320435
-0.032196
-0.0331116
-0.0338745
-0.0349426
-0.0358582
-0.0369263
-0.0378418
-0.0387573
-0.0390625
-0.0395203
-0.0392151
-0.0390625
-0.0393677
-0.0390625
-0.0387573
-0.0389099
-0.0389099
-0.0384521
-0.0386047
-0.0387573
-0.0389099
-0.0390625
-0.0396729
-0.039978
-0.0410461
-0.0410461
-0.0419617
-0.0427246
-0.0428772
-0.0428772
-0.0430298
-0.042572
-0.0421143
-0.0418091
-0.0410461
-0.0404358
-0.0396729
-0.0390625
-0.0379944
-0.0370789
-0.0361633
-0.0349426
-0.0334167
-0.0318909
-0.0297546
-0.0274658
-0.0248718
-0.0215149
-0.0180054
-0.0144958
-0.0108337
-0.00701904
-0.00289917
0.00106812
0.00457764
0.00823975
0.0115967
0.0146484
0.0175476
0.0201416
0.0221252
0.0238037
0.0254822
0.0270081
0.0276184
0.0291443
0.0300598
0.0312805
0.032959
0.0338745
0.0360107
0.0376892
0.0396729
0.0413513
0.0440979
0.0465393
0.0495911
0.052948
0.0564575
0.0602722
0.0640869
0.0686646
0.0730896
0.0779724
0.08255
0.0872803
0.0918579
0.0967407
0.100708
0.105133
0.10849
0.111237
0.113068
0.114441
0.114899
0.114136
0.112457
0.110168
0.106812
0.102539
0.098114
0.0927734
0.0872803
0.080719
0.0746155
0.0675964
0.0608826
0.0538635
0.0471497
0.0396729
0.0334167
0.0267029
0.0198364
0.01297
0.00701904
0.00106812
-0.0050354
-0.0111389
-0.0172424
-0.0238037
-0.0308228
-0.037384
-0.0437927
-0.0502014
-0.0567627
-0.0636292
-0.0691223
-0.0750732
-0.0805664
-0.0856018
-0.0895691
-0.0935364
-0.0964355
-0.0997925
-0.102234
-0.104523
-0.106201
-0.108032
-0.108948
-0.110321
-0.110779
-0.111542
-0.111542
-0.111542
-0.111389
-0.111237
-0.110931
-0.110321
-0.109711
-0.1091
-0.10788
-0.107422
-0.106201
-0.105438
-0.104675
-0.10376
-0.103302
-0.102386
-0.102386
-0.101929
-0.101624
-0.101013
-0.101013
-0.100098
-0.100098
-0.100098
-0.0999451
-0.0993347
-0.098877
-0.0979614
-0.0968933
-0.0961304
-0.0953674
-0.0946045
-0.0938416
-0.092926
-0.0927734
-0.0924683
-0.0923157
-0.0924683
-0.0927734
-0.0927734
-0.0932312
-0.092926
-0.093689
-0.0939941
-0.0950623
-0.0956726
-0.0971985
-0.0990295
-0.100861
-0.102997
-0.105133
-0.107422
-0.109863
-0.112152
-0.114288
-0.115814
-0.117645
-0.118713
-0.118408
-0.11734
-0.114899
-0.110779
-0.105133
-0.0964355
-0.085907
-0.0718689
-0.0544739
-0.0332642
-0.00762939
0.0213623
0.0547791
0.0920105
0.133209
0.17807
0.225677
0.277252
0.331726
0.389252
0.448761
0.509644
0.570374
0.629425
0.685272
0.735779
0.779266
0.814514
0.840454
0.856781
0.863342
0.859833
0.847168
0.82428
0.791473
0.749512
0.698242
0.637665
0.569305
0.493622
0.41275
0.327759
0.240936
0.153809
0.0679016
-0.0144958
-0.0923157
-0.163422
-0.228119
-0.284271
-0.331421
-0.36972
-0.399475
-0.420227
-0.43335
-0.43869
-0.437469
-0.43045
-0.418701
-0.403137
-0.384064
-0.362549
-0.339203
-0.314331
-0.289154
-0.263672
-0.238495
-0.214539
-0.191498
-0.169678
-0.150452
-0.132599
-0.117645
-0.104828
-0.0939941
-0.0857544
-0.0791931
-0.0741577
-0.0717163
-0.0706482
-0.0700378
-0.0715637
-0.0732422
-0.0753784
-0.078125
-0.0808716
-0.0842285
-0.0865173
-0.088501
-0.0904846
-0.0918579
-0.092926
-0.093689
-0.0938416
-0.093689
-0.0938416
-0.0927734
-0.0921631
-0.0909424
-0.0900269
-0.0891113
-0.0878906
-0.0868225
-0.085907
-0.0842285
-0.0828552
-0.0816345
-0.0794983
-0.0784302
-0.0767517
-0.0747681
-0.0732422
-0.0726318
-0.0712585
-0.0700378
-0.0688171
-0.0675964
-0.0666809
-0.065918
-0.0653076
-0.0645447
-0.0640869
-0.0637817
-0.063324
-0.0630188
-0.0627136
-0.0621033
-0.0613403
-0.06073
-0.0598145
-0.0590515
-0.0579834
-0.0569153
-0.055542
-0.0544739
-0.052948
-0.0517273
-0.0506592
-0.0497437
-0.0491333
-0.0492859
-0.0486755
-0.0483704
-0.0480652
-0.0483704
-0.0480652
-0.04776
-0.0473022
-0.0469971
-0.0466919
-0.045929
-0.045166
-0.0450134
-0.0450134
-0.0447083
-0.0444031
-0.0444031
-0.0440979
-0.0437927
-0.0445557
-0.0442505
-0.0444031
-0.0445557
-0.0444031
-0.0442505
-0.043335
-0.0427246
-0.0418091
-0.0405884
-0.0395203
-0.0376892
-0.0363159
-0.0354004
-0.0340271
-0.0332642
-0.0323486
-0.0311279
-0.0309753
-0.0305176
-0.0306702
-0.0308228
-0.0311279
-0.0309753
-0.0311279
-0.0317383
-0.0317383
-0.0312805
-0.0309753
-0.0297546
-0.0288391
-0.0265503
-0.0253296
-0.0238037
-0.0218201
-0.0202942
-0.0189209
-0.0170898
-0.0160217
-0.0146484
-0.0137329
-0.0131226
-0.0128174
-0.0125122
-0.0123596
-0.0126648
-0.0128174
-0.01297
-0.0128174
-0.012207
-0.0117493
-0.0106812
-0.00991821
-0.0088501
-0.00793457
-0.00686646
-0.00595093
-0.00442505
-0.00366211
-0.00274658
-0.00152588
-0.000457764
0.000610352
0.00167847
0.00289917
0.0038147
0.00488281
0.00595093
0.00671387
0.00778198
0.00915527
0.0102234
0.0111389
0.0123596
0.0137329
0.0149536
0.0158691
0.0169373
0.018158
0.0187683
0.0196838
0.0202942
0.0205994
0.0212097
0.0222778
0.022583
0.0230408
0.0241089
0.0248718
0.0259399
0.0268555
0.0280762
0.0292969
0.0305176
0.0317383
0.0328064
0.0341797
0.0344849
0.0352478
0.0354004
0.0354004
0.0350952
0.0349426
0.03479
0.0346375
0.03479
0.03479
0.0354004
0.0358582
0.0367737
0.037384
0.0387573
0.0395203
0.0401306
0.0411987
0.0421143
0.043335
0.0437927
0.0445557
0.0445557
0.0450134
0.045166
0.0453186
0.0454712
0.0453186
0.0454712
0.0454712
0.0453186
0.0454712
0.0450134
0.0450134
0.0444031
0.0444031
0.0434875
0.0428772
0.0424194
0.0416565
0.040741
0.0396729
0.0382996
0.0366211
0.0346375
0.0320435
0.0292969
0.0265503
0.0233459
0.0202942
0.0170898
0.0137329
0.0100708
0.00701904
0.00396729
0.000762939
-0.00259399
-0.00610352
-0.00961304
-0.01297
-0.0163269
-0.019989
-0.0230408
-0.0267029
-0.0297546
-0.0328064
-0.035553
-0.0379944
-0.039978
-0.0413513
-0.0430298
-0.0445557
-0.0454712
-0.0466919
-0.0476074
-0.0485229
-0.0495911
-0.0511169
-0.0523376
-0.0541687
-0.0556946
-0.058136
-0.0604248
-0.0637817
-0.0668335
-0.0698853
-0.0733948
-0.0765991
-0.0796509
-0.0828552
-0.085144
-0.0872803
-0.0894165
-0.0907898
-0.0918579
-0.0926208
-0.0927734
-0.0926208
-0.0923157
-0.0915527
-0.0909424
-0.0900269
-0.0894165
-0.0889587
-0.0883484
-0.0878906
-0.0874329
-0.0872803
-0.0874329
-0.0869751
-0.0866699
-0.0869751
-0.0863647
-0.0865173
-0.0865173
-0.0866699
-0.0871277
-0.0872803
-0.0878906
-0.088501
-0.0892639
-0.0897217
-0.0907898
-0.0915527
-0.0926208
-0.0933838
-0.0935364
-0.0941467
-0.0938416
-0.093689
-0.0926208
-0.0917053
-0.0901794
-0.0880432
-0.0862122
-0.0839233
-0.0817871
-0.0790405
-0.0769043
-0.0746155
-0.0724792
-0.0706482
-0.0694275
-0.0682068
-0.0675964
-0.0666809
-0.0666809
-0.0663757
-0.0666809
-0.0672913
-0.0674438
-0.0686646
-0.0700378
-0.0706482
-0.0717163
-0.0723267
-0.0726318
-0.072937
-0.072937
-0.0726318
-0.0720215
-0.0718689
-0.0712585
-0.0708008
-0.0700378
-0.0697327
-0.0695801
-0.0689697
-0.0688171
-0.0680542
-0.0674438
-0.0666809
-0.0662231
-0.065155
-0.0643921
-0.0637817
-0.0631714
-0.0628662
-0.062561
-0.0622559
-0.0614929
-0.0613403
-0.0611877
-0.0608826
-0.0602722
-0.0596619
-0.0588989
-0.0579834
-0.057373
-0.0559998
-0.0547791
-0.0531006
-0.0515747
-0.0502014
-0.0483704
-0.0465393
-0.0448608
-0.0430298
-0.0419617
-0.0411987
-0.0404358
-0.0398254
-0.0402832
-0.0402832
-0.0402832
-0.0411987
-0.0418091
-0.0422668
-0.042572
-0.0424194
-0.0421143
-0.0413513
-0.0404358
-0.0392151
-0.0382996
-0.037384
-0.0361633
-0.035553
-0.0346375
-0.0341797
-0.0337219
-0.0335693
-0.0338745
-0.0343323
-0.03479
-0.0352478
-0.0360107
-0.0367737
-0.0370789
-0.0382996
-0.0390625
-0.0398254
-0.0401306
-0.0405884
-0.0410461
-0.0416565
-0.0421143
-0.0424194
-0.0427246
-0.0431824
-0.0431824
-0.0440979
-0.0442505
-0.0444031
-0.0454712
-0.0457764
-0.0460815
-0.0460815
-0.0462341
-0.0463867
-0.0456238
-0.0448608
-0.0442505
-0.0427246
-0.0411987
-0.0401306
-0.0384521
-0.037384
-0.0358582
-0.0346375
-0.0338745
-0.0326538
-0.0328064
-0.032196
-0.0323486
-0.0325012
-0.0334167
-0.0341797
-0.0344849
-0.0354004
-0.0358582
-0.0364685
-0.0366211
-0.0372314
-0.0370789
-0.0375366
-0.0372314
-0.037384
-0.0372314
-0.0367737
-0.0366211
-0.0363159
-0.0364685
-0.0360107
-0.0364685
-0.0361633
-0.0363159
-0.0367737
-0.0372314
-0.037384
-0.0376892
-0.0378418
-0.0378418
-0.0379944
-0.0375366
-0.0375366
-0.0370789
-0.0372314
-0.0370789
-0.0369263
-0.0364685
-0.0370789
-0.0369263
-0.0370789
-0.0375366
-0.037384
-0.0372314
-0.0370789
-0.0370789
-0.0364685
-0.0361633
-0.0357056
-0.0346375
-0.0337219
-0.0326538
-0.0314331
-0.0308228
-0.0291443
-0.0280762
-0.0268555
-0.0257874
-0.025177
-0.0239563
-0.0236511
-0.0236511
-0.0238037
-0.0236511
-0.0238037
-0.0241089
-0.0238037
-0.0242615
-0.0238037
-0.0236511
-0.0231934
-0.0231934
-0.0228882
-0.022583
-0.0224304
-0.0218201
-0.0213623
-0.020752
-0.0205994
-0.0205994
-0.0202942
-0.0204468
-0.020752
-0.0205994
-0.0210571
-0.0210571
-0.0210571
-0.0213623
-0.0210571
-0.0213623
-0.0213623
-0.0209045
-0.020752
-0.020752
-0.0209045
-0.0202942
-0.0204468
-0.0204468
-0.0205994
-0.020752
-0.0209045
-0.0212097
-0.0216675
-0.0218201
-0.0218201
-0.0216675
-0.0212097
-0.0198364
-0.0183105
-0.0167847
-0.0149536
-0.0128174
-0.010376
-0.00808716
-0.00518799
-0.00244141
0.000152588
0.00320435
0.00656128
0.00930786
0.01297
0.0160217
0.0195312
0.0224304
0.0256348
0.0286865
0.0323486
0.0350952
0.0379944
0.0404358
0.0434875
0.0456238
0.0480652
0.0506592
0.0531006
0.0553894
0.0584412
0.0605774
0.0631714
0.0648499
0.0669861
0.0686646
0.0704956
0.0724792
0.0744629
0.0767517
0.0794983
0.0828552
0.0868225
0.091095
0.0959778
0.10025
0.10437
0.10849
0.112457
0.115967
0.119476
0.12207
0.123749
0.124664
0.125122
0.124207
0.123291
0.121155
0.118713
0.115662
0.112152
0.10849
0.10437
0.0999451
0.0952148
0.090332
0.0845337
0.0791931
0.0732422
0.0665283
0.0595093
0.0521851
0.0453186
0.038147
0.0309753
0.0231934
0.0163269
0.00930786
0.00289917
-0.0038147
-0.00991821
-0.0157166
-0.0218201
-0.0268555
-0.0320435
-0.0370789
-0.0415039
-0.0457764
-0.0497437
-0.0532532
-0.0572205
-0.0604248
-0.0639343
-0.0668335
-0.0701904
-0.0732422
-0.0764465
-0.0794983
-0.0830078
-0.0852966
-0.0880432
-0.0900269
-0.0920105
-0.0930786
-0.0938416
-0.0947571
-0.0950623
-0.0956726
-0.0953674
-0.0949097
-0.0946045
-0.0935364
-0.0927734
-0.0923157
-0.0909424
-0.0901794
-0.0894165
-0.0878906
-0.0869751
-0.0862122
-0.0849915
-0.0839233
-0.0828552
-0.0820923
-0.0814819
-0.0808716
-0.0801086
-0.0798035
-0.0793457
-0.0790405
-0.0784302
-0.078125
-0.0782776
-0.0782776
-0.0778198
-0.0782776
-0.0778198
-0.0776672
-0.0769043
-0.0767517
-0.075531
-0.0741577
-0.0726318
-0.0715637
-0.0698853
-0.0689697
-0.0679016
-0.0672913
-0.0671387
-0.0682068
-0.0695801
-0.0717163
-0.0738525
-0.0773621
-0.080719
-0.0846863
-0.0878906
-0.0917053
-0.0941467
-0.0964355
-0.0975037
-0.0976562
-0.0958252
-0.0924683
-0.087738
-0.0805664
-0.0715637
-0.0598145
-0.0450134
-0.0271606
-0.00610352
0.0186157
0.0465393
0.0782776
0.113068
0.151672
0.193024
0.236969
0.284271
0.334473
0.387878
0.442657
0.499573
0.55603
0.610199
0.661621
0.70755
0.746613
0.777893
0.800781
0.814819
0.81955
0.815125
0.802612
0.780792
0.751343
0.712891
0.666656
0.61264
0.551453
0.484009
0.411835
0.335999
0.258331
0.180054
0.103455
0.0294495
-0.0408936
-0.106201
-0.165405
-0.217896
-0.263977
-0.302429
-0.33432
-0.358887
-0.376587
-0.388031
-0.393829
-0.394287
-0.390625
-0.382233
-0.371094
-0.356903
-0.340271
-0.32196
-0.301819
-0.281219
-0.259399
-0.237427
-0.216217
-0.19516
-0.175629
-0.157013
-0.139923
-0.124969
-0.111084
-0.0991821
-0.0886536
-0.0799561
-0.072937
-0.0675964
-0.0630188
-0.059967
-0.0575256
-0.0564575
-0.0556946
-0.0561523
-0.0561523
-0.0567627
-0.0582886
-0.0595093
-0.0613403
-0.0630188
-0.0650024
-0.0669861
-0.0683594
-0.0694275
-0.070343
-0.0709534
-0.071106
-0.0708008
-0.0697327
-0.068512
-0.0668335
-0.0650024
-0.0630188
-0.0605774
-0.058136
-0.055542
-0.0532532
-0.0506592
-0.0491333
-0.0473022
-0.0457764
-0.0442505
-0.0439453
-0.0430298
-0.042572
-0.042572
-0.0428772
-0.0431824
-0.0437927
-0.0440979
-0.0444031
-0.0445557
-0.0448608
-0.0450134
-0.0447083
-0.0447083
-0.0439453
-0.0431824
-0.0427246
-0.0424194
-0.0416565
-0.0413513
-0.040741
-0.0404358
-0.0393677
-0.0384521
-0.0372314
-0.0363159
-0.03479
-0.032959
-0.0308228
-0.0288391
-0.0268555
-0.0248718
-0.0230408
-0.0215149
-0.0202942
-0.0189209
-0.0183105
-0.017395
-0.0167847
-0.0164795
-0.0158691
-0.0160217
-0.0157166
-0.0157166
-0.0157166
-0.0157166
-0.0157166
-0.0157166
-0.0152588
-0.0154114
-0.0151062
-0.0146484
-0.0140381
-0.0140381
-0.0135803
-0.01297
-0.0126648
-0.0120544
-0.0117493
-0.0115967
-0.0117493
-0.0117493
-0.0109863
-0.0114441
-0.0106812
-0.0105286
-0.00961304
-0.00915527
-0.00823975
-0.00686646
-0.00564575
-0.00457764
-0.00305176
-0.00183105
-0.00106812
-0.000457764
0.000305176
0.000610352
0.00106812
0.00152588
0.00152588
0.00183105
0.00198364
0.00244141
0.00244141
0.00305176
0.00366211
0.00442505
0.00518799
0.0062561
0.00686646
0.00823975
0.00946045
0.0105286
0.0119019
0.0131226
0.0140381
0.0151062
0.0158691
0.0169373
0.0175476
0.0180054
0.0187683
0.0192261
0.0198364
0.0209045
0.0218201
0.0227356
0.0244141
0.0260925
0.0273132
0.0289917
0.030365
0.0318909
0.0334167
0.0349426
0.0361633
0.0375366
0.0382996
0.0389099
0.0395203
0.0401306
0.0404358
0.0410461
0.0413513
0.0418091
0.042572
0.0431824
0.0437927
0.0444031
0.0453186
0.0457764
0.0465393
0.0471497
0.0480652
0.0485229
0.0491333
0.0489807
0.0492859
0.0491333
0.0492859
0.0492859
0.0494385
0.0491333
0.0495911
0.0494385
0.0492859
0.0497437
0.0500488
0.0505066
0.0512695
0.0523376
0.0531006
0.0540161
0.055542
0.0567627
0.058136
0.0588989
0.0596619
0.0604248
0.0613403
0.0624084
0.0634766
0.0642395
0.0656128
0.0668335
0.0679016
0.0689697
0.0698853
0.0712585
0.0723267
0.0732422
0.0741577
0.0741577
0.0744629
0.0738525
0.0733948
0.0718689
0.0700378
0.0683594
0.065918
0.0631714
0.0602722
0.0576782
0.0549316
0.0517273
0.0489807
0.0466919
0.0444031
0.0422668
0.0401306
0.0382996
0.0361633
0.0344849
0.0323486
0.0300598
0.027771
0.0253296
0.022583
0.0198364
0.0166321
0.0135803
0.0105286
0.00747681
0.00457764
0.00183105
-0.00106812
-0.00350952
-0.00656128
-0.0088501
-0.0117493
-0.0134277
-0.0158691
-0.0180054
-0.0201416
-0.0216675
-0.0238037
-0.0259399
-0.0282288
-0.0305176
-0.0328064
-0.03479
-0.0361633
-0.038147
-0.0398254
-0.0413513
-0.0427246
-0.0445557
-0.0456238
-0.0466919
-0.04776
-0.0486755
-0.0495911
-0.0506592
-0.0512695
-0.0521851
-0.0531006
-0.0538635
-0.0547791
-0.055542
-0.0564575
-0.0575256
-0.0579834
-0.0587463
-0.0595093
-0.059967
-0.0602722
-0.059967
-0.0593567
-0.0590515
-0.0584412
-0.0579834
-0.0578308
-0.0572205
-0.0569153
-0.0566101
-0.0559998
-0.0559998
-0.0558472
-0.0558472
-0.055542
-0.0553894
-0.0552368
-0.0549316
-0.0544739
-0.0540161
-0.0531006
-0.0524902
-0.0515747
-0.0505066
-0.0494385
-0.0482178
-0.0473022
-0.045929
-0.0444031
-0.0439453
-0.0430298
-0.0428772
-0.0428772
-0.042572
-0.0427246
-0.0431824
-0.0434875
-0.0434875
-0.0439453
-0.0440979
-0.0437927
-0.0439453
-0.0434875
-0.042572
-0.0418091
-0.0408936
-0.0398254
-0.0384521
-0.037384
-0.0361633
-0.0349426
-0.0338745
-0.0326538
-0.0317383
-0.0315857
-0.0308228
-0.0302124
-0.0299072
-0.0297546
-0.0292969
-0.0286865
-0.0280762
-0.0274658
-0.0268555
-0.0267029
-0.0254822
-0.0250244
-0.0242615
-0.0233459
-0.0231934
-0.0224304
-0.022583
-0.022583
-0.0227356
-0.022583
-0.022583
-0.0224304
-0.0219727
-0.0215149
-0.0212097
-0.0204468
-0.0192261
-0.0186157
-0.0172424
-0.0157166
-0.0143433
-0.0131226
-0.0117493
-0.010376
-0.00869751
-0.00808716
-0.00701904
-0.0062561
-0.00579834
-0.00549316
-0.00534058
-0.00534058
-0.00473022
-0.00473022
-0.00442505
-0.00442505
-0.00411987
-0.00366211
-0.00350952
-0.00335693
-0.00244141
-0.00244141
-0.00213623
-0.00198364
-0.00213623
-0.00198364
-0.00213623
-0.00244141
-0.00259399
-0.00289917
-0.00320435
-0.00350952
-0.00350952
-0.00366211
-0.00366211
-0.00366211
-0.00335693
-0.00244141
-0.00213623
-0.00152588
-0.00137329
-0.000762939
-0.000152588
0.000305176
0.000762939
0.00106812
0.00137329
0.000915527
0.000610352
0.000152588
-0.000152588
-0.000762939
-0.00106812
-0.0012207
-0.0012207
-0.00137329
-0.000457764
-0.000305176
0.000610352
0.00137329
0.00274658
0.00396729
0.00457764
0.00610352
0.00686646
0.00747681
0.00778198
0.00823975
0.00778198
0.00747681
0.00762939
0.00701904
0.00701904
0.0062561
0.00610352
0.00579834
0.00534058
0.00457764
0.00411987
0.00396729
0.00396729
0.00320435
0.00320435
0.00289917
0.00259399
0.00183105
0.00152588
0.000457764
0.000152588
-0.000305176
-0.000762939
-0.00167847
-0.00228882
-0.00289917
-0.00350952
-0.00350952
-0.00411987
-0.00442505
-0.00411987
-0.00427246
-0.0038147
-0.00350952
-0.00320435
-0.00274658
-0.00274658
-0.00244141
-0.00244141
-0.00259399
-0.00213623
-0.00213623
-0.00167847
-0.00137329
-0.000762939
-0.000610352
-0.000305176
0.000152588
0.000152588
0.000762939
0.0012207
0.00213623
0.00228882
0.00289917
0.00289917
0.00274658
0.00244141
0.00198364
0.000610352
-0.000762939
-0.00213623
-0.00366211
-0.00534058
-0.00686646
-0.00762939
-0.00869751
-0.00946045
-0.0102234
-0.0102234
-0.0100708
-0.00961304
-0.00869751
-0.00793457
-0.00686646
-0.00534058
-0.00411987
-0.00274658
-0.00106812
-0.000152588
0.00106812
0.00198364
0.00274658
0.00366211
0.00442505
0.00473022
0.00549316
0.00579834
0.00595093
0.0062561
0.00610352
0.00640869
0.00595093
0.00564575
0.00488281
0.00427246
0.00396729
0.00289917
0.00213623
0.000915527
-0.000457764
-0.00198364
-0.00335693
-0.00457764
-0.00595093
-0.00686646
-0.00793457
-0.00823975
-0.00839233
-0.00808716
-0.00778198
-0.00732422
-0.00595093
-0.00442505
-0.00244141
0.000152588
0.00244141
0.00549316
0.00808716
0.0114441
0.0146484
0.017395
0.0212097
0.0245667
0.0285339
0.0318909
0.0364685
0.0396729
0.0445557
0.0485229
0.0534058
0.0575256
0.0610352
0.0650024
0.0680542
0.0714111
0.0737
0.0759888
0.0778198
0.0787354
0.0798035
0.080719
0.0808716
0.0813293
0.0814819
0.0822449
0.0830078
0.0837708
0.0849915
0.0866699
0.0891113
0.0920105
0.09552
0.0994873
0.10376
0.108795
0.11322
0.11795
0.122986
0.127563
0.131683
0.136108
0.139465
0.142059
0.144043
0.145569
0.145874
0.145416
0.144501
0.142975
0.140533
0.137329
0.133972
0.129852
0.124969
0.119629
0.114136
0.10788
0.101166
0.0933838
0.085907
0.0779724
0.0697327
0.0616455
0.0537109
0.0463867
0.0389099
0.0323486
0.0253296
0.0187683
0.01297
0.00640869
0.000457764
-0.00610352
-0.0119019
-0.0180054
-0.0236511
-0.0291443
-0.0350952
-0.0401306
-0.0454712
-0.0506592
-0.0549316
-0.0592041
-0.0627136
-0.0665283
-0.0691223
-0.0712585
-0.0735474
-0.0744629
-0.0752258
-0.0756836
-0.0756836
-0.075531
-0.0753784
-0.0747681
-0.0740051
-0.0733948
-0.0724792
-0.0723267
-0.0721741
-0.0717163
-0.0717163
-0.0717163
-0.0715637
-0.0715637
-0.0715637
-0.0712585
-0.0706482
-0.070343
-0.0698853
-0.0692749
-0.0683594
-0.0679016
-0.0669861
-0.0668335
-0.0656128
-0.0654602
-0.0654602
-0.065155
-0.0650024
-0.065155
-0.0648499
-0.0653076
-0.065155
-0.0653076
-0.0650024
-0.0645447
-0.0639343
-0.0631714
-0.0619507
-0.0608826
-0.0593567
-0.0584412
-0.057373
-0.0564575
-0.0556946
-0.0558472
-0.0559998
-0.0576782
-0.0596619
-0.0621033
-0.065155
-0.0682068
-0.0718689
-0.0753784
-0.0785828
-0.0816345
-0.0845337
-0.0866699
-0.0874329
-0.0875854
-0.0862122
-0.083313
-0.0790405
-0.0727844
-0.0645447
-0.0534058
-0.0395203
-0.0231934
-0.00244141
0.020752
0.0488281
0.0805664
0.116425
0.155945
0.199127
0.245819
0.296326
0.350647
0.408325
0.46814
0.529938
0.591888
0.653229
0.71106
0.764771
0.811615
0.850372
0.880127
0.900116
0.910339
0.910797
0.901031
0.881805
0.852661
0.813751
0.764771
0.706482
0.640869
0.566559
0.48645
0.402222
0.314789
0.226288
0.13855
0.0532532
-0.0280762
-0.10437
-0.173492
-0.23468
-0.287628
-0.331726
-0.366058
-0.391388
-0.40863
-0.417328
-0.418549
-0.413361
-0.403137
-0.387268
-0.367737
-0.345154
-0.320282
-0.293732
-0.266571
-0.238647
-0.212097
-0.186768
-0.163269
-0.141144
-0.122375
-0.105743
-0.0914001
-0.0796509
-0.070343
-0.0634766
-0.0582886
-0.0550842
-0.052948
-0.052948
-0.0532532
-0.0543213
-0.0558472
-0.058136
-0.0608826
-0.0630188
-0.0654602
-0.0675964
-0.0700378
-0.0714111
-0.0730896
-0.0744629
-0.075531
-0.0762939
-0.0767517
-0.0769043
-0.0769043
-0.0759888
-0.0749207
-0.0738525
-0.0724792
-0.0708008
-0.0694275
-0.0680542
-0.0668335
-0.0653076
-0.0636292
-0.0622559
-0.0616455
-0.0608826
-0.0602722
-0.0596619
-0.0587463
-0.0579834
-0.0575256
-0.0566101
-0.0553894
-0.0546265
-0.052948
-0.0518799
-0.050354
-0.0485229
-0.0468445
-0.045166
-0.0436401
-0.0427246
-0.0418091
-0.0408936
-0.0405884
-0.0408936
-0.0405884
-0.0404358
-0.040741
-0.0408936
-0.0410461
-0.0411987
-0.0411987
-0.0415039
-0.0413513
-0.0408936
-0.0402832
-0.039978
-0.0396729
-0.0387573
-0.038147
-0.0369263
-0.0360107
-0.0352478
-0.0346375
-0.0338745
-0.0332642
-0.0328064
-0.0320435
-0.0315857
-0.0312805
-0.0300598
-0.0292969
-0.0286865
-0.0279236
-0.0267029
-0.0256348
-0.0248718
-0.0238037
-0.0231934
-0.0222778
-0.0218201
-0.0215149
-0.0210571
-0.0212097
-0.0213623
-0.0219727
-0.022583
-0.0227356
-0.0231934
-0.0228882
-0.0231934
-0.0230408
-0.0227356
-0.0222778
-0.0215149
-0.020752
-0.0198364
-0.0186157
-0.0178528
-0.0164795
-0.015564
-0.0144958
-0.0134277
-0.01297
-0.0117493
-0.0109863
-0.010376
-0.00946045
-0.0088501
-0.00808716
-0.00717163
-0.00656128
-0.00564575
-0.00457764
-0.00366211
-0.00274658
-0.000915527
-0.000457764
0.000915527
0.00152588
0.00259399
0.00259399
0.00259399
0.00259399
0.00259399
0.00244141
0.00244141
0.00259399
0.00213623
0.00259399
0.00274658
0.00335693
0.00366211
0.00427246
0.00595093
0.00717163
0.0088501
0.00961304
0.0114441
0.0125122
0.0141907
0.015564
0.0166321
0.018158
0.0192261
0.0204468
0.0209045
0.0216675
0.0224304
0.0233459
0.0241089
0.0250244
0.0259399
0.0270081
0.0285339
0.0296021
0.0308228
0.0325012
0.0341797
0.035553
0.0376892
0.0387573
0.0396729
0.0410461
0.0421143
0.0430298
0.0439453
0.0440979
0.0453186
0.0454712
0.0460815
0.0462341
0.0473022
0.0479126
0.0486755
0.0497437
0.050354
0.0506592
0.0514221
0.0518799
0.0523376
0.0527954
0.0527954
0.052948
0.0532532
0.0532532
0.0535583
0.0537109
0.0540161
0.0546265
0.0549316
0.0561523
0.0570679
0.0588989
0.0604248
0.0622559
0.0637817
0.0654602
0.0675964
0.0688171
0.0700378
0.0708008
0.0715637
0.0720215
0.0718689
0.0718689
0.0712585
0.0704956
0.0692749
0.0680542
0.0666809
0.0650024
0.0640869
0.0624084
0.0601196
0.0584412
0.0563049
0.0541687
0.0517273
0.050354
0.04776
0.0457764
0.0431824
0.0404358
0.0376892
0.0349426
0.0312805
0.0280762
0.0242615
0.0205994
0.0163269
0.0131226
0.00976562
0.00671387
0.00274658
-0.000305176
-0.00366211
-0.00686646
-0.00946045
-0.0126648
-0.0154114
-0.0177002
-0.0205994
-0.0234985
-0.0259399
-0.0286865
-0.0312805
-0.0338745
-0.035553
-0.0379944
-0.0401306
-0.0418091
-0.0437927
-0.045166
-0.0466919
-0.0480652
-0.0494385
-0.0509644
-0.0518799
-0.0532532
-0.0546265
-0.0563049
-0.0579834
-0.0593567
-0.0613403
-0.0628662
-0.0642395
-0.0656128
-0.0666809
-0.0680542
-0.0679016
-0.0688171
-0.0686646
-0.068512
-0.0680542
-0.0675964
-0.0669861
-0.0663757
-0.065918
-0.065155
-0.0646973
-0.0643921
-0.0642395
-0.0642395
-0.0648499
-0.0653076
-0.065918
-0.0665283
-0.0669861
-0.0674438
-0.0683594
-0.0686646
-0.0689697
-0.0688171
-0.0686646
-0.0680542
-0.0675964
-0.0668335
-0.0666809
-0.0657654
-0.0650024
-0.0642395
-0.0634766
-0.0634766
-0.0628662
-0.0630188
-0.0622559
-0.0619507
-0.0617981
-0.0613403
-0.0611877
-0.06073
-0.0604248
-0.0595093
-0.0590515
-0.058136
-0.0572205
-0.0567627
-0.0556946
-0.055542
-0.0546265
-0.0541687
-0.0544739
-0.0538635
-0.0543213
-0.0541687
-0.0544739
-0.0546265
-0.0544739
-0.0544739
-0.0541687
-0.0537109
-0.0534058
-0.0523376
-0.0512695
-0.050354
-0.0485229
-0.0468445
-0.0454712
-0.0434875
-0.0422668
-0.0404358
-0.0398254
-0.0384521
-0.0379944
-0.0370789
-0.0370789
-0.0360107
-0.0360107
-0.0354004
-0.035553
-0.0354004
-0.0352478
-0.0344849
-0.0340271
-0.0332642
-0.0332642
-0.0326538
-0.032196
-0.0317383
-0.0312805
-0.0308228
-0.0306702
-0.0305176
-0.030365
-0.030365
-0.0300598
-0.0299072
-0.0296021
-0.0289917
-0.0288391
-0.0283813
-0.027771
-0.0267029
-0.0256348
-0.0247192
-0.0236511
-0.0224304
-0.0216675
-0.0204468
-0.0192261
-0.0184631
-0.0177002
-0.017395
-0.0169373
-0.0170898
-0.0172424
-0.0167847
-0.0170898
-0.0170898
-0.0172424
-0.0172424
-0.0169373
-0.0164795
-0.0160217
-0.015564
-0.0146484
-0.0143433
-0.0141907
-0.0135803
-0.0128174
-0.0128174
-0.0125122
-0.01297
-0.0126648
-0.0131226
-0.0132751
-0.0137329
-0.0138855
-0.0144958
-0.014801
-0.0149536
-0.0149536
-0.0151062
-0.0152588
-0.0151062
-0.0149536
-0.0146484
-0.0144958
-0.0146484
-0.0149536
-0.0154114
-0.0158691
-0.0163269
-0.0175476
-0.0180054
-0.0189209
-0.0202942
-0.020752
-0.0212097
-0.0212097
-0.0216675
-0.0216675
-0.0216675
-0.0209045
-0.0201416
-0.0198364
-0.0190735
-0.0184631
-0.0178528
-0.017395
-0.0166321
-0.0163269
-0.0161743
-0.0164795
-0.0167847
-0.0170898
-0.017395
-0.0180054
-0.0186157
-0.0189209
-0.0195312
-0.0198364
-0.019989
-0.0205994
-0.020752
-0.0204468
-0.020752
-0.0205994
-0.020752
-0.0204468
-0.020752
-0.020752
-0.020752
-0.0209045
-0.0213623
-0.0215149
-0.0218201
-0.0219727
-0.0222778
-0.022583
-0.0230408
-0.0227356
-0.0227356
-0.022583
-0.0221252
-0.0221252
-0.0219727
-0.0210571
-0.0209045
-0.0205994
-0.0202942
-0.0202942
-0.0205994
-0.020752
-0.0205994
-0.0210571
-0.0209045
-0.0210571
-0.0209045
-0.0209045
-0.0209045
-0.020752
-0.0209045
-0.0205994
-0.0205994
-0.0202942
-0.0202942
-0.0202942
-0.020752
-0.0204468
-0.020752
-0.0215149
-0.0227356
-0.0234985
-0.0250244
-0.0262451
-0.0273132
-0.0283813
-0.0296021
-0.0306702
-0.0309753
-0.0308228
-0.0312805
-0.0306702
-0.0305176
-0.0300598
-0.0294495
-0.0292969
-0.0283813
-0.0279236
-0.0271606
-0.0268555
-0.0267029
-0.0265503
-0.0265503
-0.0262451
-0.0262451
-0.0260925
-0.0254822
-0.0244141
-0.0230408
-0.0212097
-0.0193787
-0.0166321
-0.0132751
-0.00991821
-0.00564575
-0.0012207
0.00320435
0.00823975
0.0135803
0.0186157
0.0233459
0.0286865
0.0337219
0.0387573
0.0422668
0.0466919
0.0508118
0.0543213
0.0575256
0.0604248
0.0630188
0.065155
0.0672913
0.0688171
0.0700378
0.0706482
0.0718689
0.0726318
0.0727844
0.072937
0.0733948
0.0737
0.0746155
0.0752258
0.0772095
0.0791931
0.0822449
0.0856018
0.0892639
0.0938416
0.0985718
0.102997
0.108337
0.112915
0.117798
0.122986
0.126801
