0.518188
0.519409
0.52002
0.52063
0.522461
0.523071
0.523682
0.524902
0.525208
0.527649
0.528564
0.529785
0.529785
0.530701
0.531311
0.531616
0.532837
0.534058
0.534668
0.535278
0.535583
0.535583
0.536804
0.537109
0.538025
0.538025
0.53833
0.53833
0.539246
0.539246
0.539246
0.539246
0.540161
0.539246
0.539856
0.539856
0.539246
0.538635
0.538025
0.538025
0.537415
0.536194
0.535583
0.535278
0.534058
0.533752
0.532837
0.532227
0.531006
0.529785
0.529175
0.527954
0.526428
0.524902
0.523376
0.522766
0.521851
0.519714
0.517883
0.516357
0.515137
0.513916
0.512085
0.510254
0.508118
0.505676
0.504761
0.503235
0.500488
0.498352
0.496826
0.49469
0.491943
0.490417
0.487366
0.485535
0.482788
0.480652
0.477905
0.475159
0.473633
0.470581
0.467224
0.464478
0.462646
0.4599
0.455933
0.452881
0.449829
0.447083
0.444336
0.441589
0.438843
0.435486
0.432434
0.429688
0.426025
0.423584
0.420837
0.41748
0.413818
0.411682
0.408936
0.405273
0.401917
0.39917
0.395813
0.392456
0.389404
0.386353
0.383301
0.380859
0.376892
0.374451
0.372009
0.368347
0.365295
0.363159
0.359497
0.357361
0.354309
0.351868
0.348206
0.346069
0.342712
0.339355
0.336609
0.334167
0.331116
0.328674
0.325623
0.322266
0.319824
0.317383
0.314941
0.3125
0.309753
0.307007
0.304871
0.302734
0.300293
0.297546
0.295105
0.292053
0.289917
0.287476
0.284729
0.282593
0.280762
0.27832
0.275879
0.274048
0.271606
0.26947
0.267029
0.266113
0.263977
0.262146
0.259705
0.256958
0.255737
0.253906
0.25177
0.248718
0.247192
0.245056
0.24292
0.241089
0.238647
0.237732
0.235596
0.233765
0.232239
0.230103
0.228271
0.227356
0.22522
0.223389
0.221863
0.220337
0.218201
0.216675
0.215149
0.212402
0.211182
0.209351
0.20752
0.206909
0.203552
0.202637
0.202332
0.200195
0.198669
0.196838
0.195007
0.193787
0.192566
0.191345
0.189819
0.188599
0.187378
0.186462
0.184631
0.183411
0.1828
0.181274
0.181274
0.179749
0.179138
0.177612
0.177002
0.175171
0.174255
0.173035
0.172424
0.172119
0.171509
0.170288
0.169678
0.169067
0.168152
0.168152
0.166626
0.165405
0.164185
0.163879
0.163269
0.163574
0.161743
0.161133
0.161133
0.160217
0.159607
0.158691
0.158386
0.157776
0.158081
0.157166
0.15686
0.156555
0.155945
0.155334
0.154724
0.154724
0.154419
0.153503
0.153503
0.153503
0.152588
0.152283
0.151978
0.151062
0.150146
0.151062
0.151367
0.149841
0.150146
0.149536
0.148926
0.148926
0.14801
0.148315
0.14679
0.1474
0.14679
0.14679
0.146484
0.146179
0.146179
0.145569
0.145569
0.145874
0.145264
0.145569
0.144958
0.146179
0.145264
0.145264
0.145874
0.145569
0.145569
0.145874
0.145264
0.145264
0.145569
0.144958
0.144958
0.144958
0.145264
0.144958
0.145264
0.145569
0.144958
0.144958
0.145874
0.146484
0.145874
0.14679
0.14679
0.14679
0.147705
0.14679
0.1474
0.147705
0.147705
0.148315
0.1474
0.14801
0.148315
0.149231
0.149536
0.148926
0.150146
0.150452
0.151062
0.151062
0.151367
0.152588
0.152893
0.152893
0.153809
0.153198
0.154114
0.154114
0.154114
0.154419
0.155029
0.15564
0.15564
0.155945
0.15686
0.15686
0.157776
0.157471
0.158081
0.158386
0.158997
0.159912
0.160522
0.160522
0.161133
0.160522
0.161438
0.161743
0.162354
0.162048
0.162354
0.162354
0.162354
0.162659
0.163269
0.163879
0.163574
0.163879
0.163879
0.16449
0.164185
0.163879
0.164185
0.163879
0.163879
0.163879
0.163269
0.163574
0.163574
0.163574
0.162354
0.162048
0.162659
0.162048
0.161743
0.162048
0.161743
0.162048
0.161438
0.161743
0.161133
0.162048
0.161743
0.161743
0.161743
0.161438
0.161438
0.160828
0.161438
0.161133
0.161438
0.161438
0.161133
0.161438
0.160828
0.160217
0.161438
0.161743
0.161743
0.161743
0.161133
0.162659
0.162048
0.161743
0.161743
0.162048
0.162964
0.162659
0.162964
0.163879
0.163879
0.164185
0.164795
0.16571
0.166931
0.167236
0.167847
0.169067
0.169983
0.171814
0.173035
0.174561
0.176392
0.177917
0.179749
0.18219
0.184021
0.186768
0.188904
0.191956
0.195312
0.198669
0.202637
0.205688
0.210266
0.214539
0.219116
0.224304
0.229797
0.23468
0.241089
0.246887
0.253296
0.259399
0.266724
0.274048
0.281677
0.289307
0.297241
0.306396
0.315247
0.324707
0.333557
0.343018
0.353699
0.364075
0.374146
0.385132
0.395813
0.40802
0.419922
0.431824
0.444336
0.456238
0.470276
0.482483
0.496216
0.510254
0.523376
0.53833
0.552368
0.566711
0.581665
0.596008
0.611572
0.625916
0.640869
0.655212
0.671997
0.687256
0.70282
0.718689
0.733948
0.748901
0.764465
0.780945
0.796204
0.811768
0.826721
0.84198
0.857239
0.872192
0.887451
0.902405
0.917664
0.932007
0.946655
0.961914
0.975342
0.98938
1.0025
1.01715
1.03058
1.04401
1.05591
1.06873
1.08124
1.09253
1.10413
1.11603
1.12671
1.138
1.14777
1.15784
1.16821
1.17706
1.18622
1.19537
1.20331
1.21185
1.21948
1.2262
1.23322
1.24023
1.24664
1.25244
1.25732
1.26312
1.2677
1.27319
1.27747
1.28113
1.28479
1.28784
1.29089
1.29456
1.29578
1.29852
1.30005
1.30096
1.30157
1.3031
1.3031
1.30341
1.30341
1.3028
1.30249
1.30127
1.30066
1.29913
1.29791
1.29578
1.29364
1.29181
1.28937
1.28662
1.28357
1.28082
1.27869
1.27533
1.27197
1.26831
1.26434
1.26068
1.25732
1.25336
1.24878
1.24481
1.23962
1.23474
1.23077
1.22589
1.2207
1.21613
1.21033
1.20575
1.20117
1.19568
1.19019
1.18408
1.18011
1.17401
1.16852
1.16333
1.15662
1.15112
1.14532
1.13983
1.13342
1.12762
1.12274
1.11603
1.10992
1.10443
1.09833
1.09253
1.08673
1.08093
1.07513
1.06873
1.06293
1.05682
1.05103
1.04492
1.03943
1.03302
1.02692
1.02142
1.01532
1.00922
1.00342
0.997314
0.991516
0.986633
0.980835
0.974426
0.969238
0.96344
0.958862
0.953369
0.947571
0.942383
0.93689
0.931396
0.926208
0.921326
0.915222
0.909424
0.904236
0.898132
0.892334
0.887451
0.881042
0.87616
0.870667
0.865784
0.85968
0.853882
0.848694
0.842896
0.837708
0.831604
0.826111
0.820312
0.814209
0.808105
0.802917
0.796814
0.79071
0.784607
0.778809
0.772705
0.767212
0.760498
0.755005
0.748901
0.742798
0.736389
0.731201
0.724487
0.718689
0.712585
0.706787
0.700378
0.69458
0.689087
0.682678
0.676575
0.670471
0.665588
0.65979
0.653381
0.648193
0.642395
0.636597
0.631714
0.626526
0.621338
0.61615
0.611877
0.606995
0.601501
0.596619
0.591736
0.587463
0.583191
0.578003
0.574036
0.570068
0.565491
0.560913
0.557556
0.554199
0.549927
0.545654
0.542908
0.539551
0.536499
0.533752
0.531311
0.528259
0.525208
0.523682
0.52002
0.518188
0.516052
0.513916
0.511475
0.509949
0.508423
0.506897
0.504761
0.503235
0.502625
0.500793
0.499878
0.499573
0.498047
0.497742
0.497437
0.496521
0.496216
0.496216
0.495911
0.4953
0.4953
0.495911
0.495911
0.495605
0.4953
0.495911
0.497131
0.497131
0.498657
0.498657
0.499878
0.499878
0.501404
0.502319
0.50354
0.503845
0.505066
0.505676
0.508118
0.508728
0.510254
0.512085
0.513306
0.514526
0.515747
0.516968
0.518799
0.520325
0.521851
0.523071
0.524902
0.527039
0.52887
0.53009
0.531311
0.533142
0.534668
0.536499
0.538025
0.538635
0.541077
0.542603
0.544128
0.545044
0.545959
0.54718
0.548401
0.550232
0.552063
0.552368
0.552673
0.554199
0.55481
0.556335
0.557556
0.558167
0.559082
0.559082
0.559692
0.559692
0.561218
0.560608
0.560913
0.562134
0.560913
0.562134
0.561523
0.561218
0.561829
0.560303
0.560608
0.559692
0.559387
0.558777
0.558167
0.557251
0.556641
0.556641
0.555115
0.553284
0.552673
0.551758
0.549927
0.549011
0.546875
0.545654
0.544434
0.542908
0.540161
0.53894
0.537415
0.535583
0.533142
0.530701
0.52948
0.527039
0.524292
0.522156
0.52002
0.516663
0.514526
0.512695
0.509644
0.507202
0.504761
0.502014
0.499268
0.496216
0.493774
0.491028
0.488281
0.48584
0.482483
0.479736
0.476685
0.474548
0.471191
0.46875
0.466309
0.462952
0.4599
0.456848
0.454712
0.451355
0.448914
0.445557
0.443115
0.440369
0.437317
0.434265
0.431519
0.428467
0.426025
0.423279
0.420532
0.418091
0.415039
0.412598
0.409241
0.40741
0.404358
0.401001
0.39856
0.396118
0.394287
0.39093
0.388794
0.385742
0.383301
0.380859
0.378113
0.375671
0.372314
0.370178
0.367126
0.36438
0.361938
0.359192
0.357056
0.353394
0.350952
0.3479
0.345459
0.342712
0.340271
0.33783
0.335388
0.332642
0.329895
0.327759
0.325317
0.323181
0.320435
0.317688
0.316162
0.313416
0.310974
0.309143
0.306702
0.303955
0.301208
0.299683
0.296936
0.295105
0.291748
0.289917
0.287476
0.285034
0.282288
0.280151
0.2771
0.274963
0.272827
0.269775
0.26825
0.266724
0.263367
0.260925
0.259094
0.256653
0.253601
0.25116
0.249329
0.246582
0.245056
0.243225
0.240173
0.238342
0.235596
0.23468
0.232239
0.230103
0.229187
0.226746
0.22522
0.223694
0.221252
0.218811
0.218201
0.215759
0.214233
0.213013
0.211182
0.210266
0.20752
0.206299
0.204773
0.203857
0.202332
0.2005
0.19928
0.198364
0.196838
0.196228
0.194397
0.193176
0.192871
0.190735
0.189514
0.188293
0.186768
0.185852
0.184326
0.183105
0.181274
0.179443
0.178223
0.177307
0.175171
0.17395
0.173035
0.171204
0.169983
0.168457
0.166626
0.165405
0.163879
0.162964
0.161743
0.159912
0.157776
0.157776
0.15625
0.154419
0.152588
0.151672
0.149536
0.148926
0.1474
0.146484
0.144348
0.144043
0.141907
0.140991
0.140076
0.137634
0.137024
0.135498
0.133972
0.133057
0.131531
0.130615
0.128784
0.128174
0.126038
0.124512
0.123901
0.12207
0.12146
0.120239
0.118408
0.117798
0.116272
0.115662
0.115051
0.113525
0.11261
0.112305
0.111389
0.110168
0.109558
0.108643
0.108032
0.108032
0.107422
0.106812
0.105896
0.106201
0.106201
0.105896
0.105591
0.105286
0.105591
0.105591
0.10437
0.105286
0.105286
0.105896
0.105896
0.105896
0.106201
0.106201
0.107727
0.106812
0.107727
0.107727
0.108337
0.107727
0.108948
0.109863
0.108948
0.109863
0.110474
0.111084
0.111084
0.110779
0.112305
0.11261
0.11261
0.112915
0.114136
0.113525
0.113831
0.114441
0.114746
0.115356
0.115356
0.115967
0.116272
0.117188
0.117188
0.119019
0.119324
0.119324
0.120544
0.121155
0.12207
0.12207
0.122681
0.122986
0.123291
0.124512
0.123901
0.125427
0.125122
0.125732
0.125427
0.126648
0.126953
0.126038
0.127869
0.127869
0.128479
0.128784
0.130005
0.1297
0.13031
0.131226
0.131226
0.131531
0.132446
0.132446
0.133362
0.133667
0.134277
0.134277
0.135193
0.136108
0.136414
0.137329
0.137329
0.13916
0.138855
0.13916
0.140381
0.140991
0.141602
0.142212
0.143433
0.143738
0.144653
0.145264
0.146484
0.14679
0.148315
0.148621
0.149536
0.150452
0.151978
0.152893
0.153503
0.154724
0.15564
0.156555
0.157471
0.158997
0.160217
0.161743
0.162964
0.163879
0.16571
0.166931
0.167847
0.168762
0.171509
0.173035
0.17395
0.176392
0.177917
0.180054
0.181885
0.183716
0.185547
0.188293
0.19104
0.192871
0.195923
0.197449
0.201721
0.203857
0.20752
0.210876
0.214539
0.218811
0.222778
0.22644
0.231018
0.236816
0.241089
0.246887
0.25177
0.257568
0.264282
0.269775
0.276184
0.282593
0.289612
0.297546
0.30426
0.312805
0.320129
0.329285
0.33783
0.345764
0.355835
0.365295
0.374451
0.385132
0.395813
0.406189
0.41748
0.429077
0.441589
0.452881
0.465088
0.477905
0.490723
0.503235
0.516052
0.529175
0.543518
0.556335
0.570374
0.585022
0.598755
0.613708
0.627747
0.643311
0.658264
0.673523
0.688171
0.70343
0.718689
0.734253
0.749512
0.764771
0.780334
0.795288
0.810852
0.8255
0.841675
0.856323
0.871277
0.886536
0.900574
0.915833
0.930176
0.945129
0.959473
0.973511
0.987549
1.00159
1.0144
1.02814
1.04218
1.05408
1.06659
1.07941
1.0907
1.10229
1.1145
1.12579
1.13678
1.14746
1.15692
1.1673
1.17645
1.18591
1.19537
1.20392
1.21185
1.2204
1.22803
1.23566
1.24298
1.24969
1.25671
1.26282
1.26801
1.2735
1.27808
1.28357
1.28784
1.29181
1.29547
1.29913
1.30096
1.30463
1.30737
1.30951
1.31226
1.31378
1.315
1.31592
1.31653
1.31744
1.31714
1.31683
1.31744
1.31592
1.3147
1.31348
1.31165
1.31012
1.30829
1.30646
1.30371
1.30127
1.29761
1.29547
1.29211
1.28906
1.2851
1.28143
1.27777
1.2738
1.26923
1.26465
1.26068
1.25641
1.25092
1.24634
1.24115
1.23688
1.23169
1.22681
1.2207
1.21582
1.21002
1.20544
1.19995
1.19385
1.18835
1.18256
1.17676
1.17126
1.16455
1.15845
1.15265
1.14685
1.14044
1.13464
1.12823
1.12183
1.11572
1.10962
1.10291
1.0968
1.09161
1.08459
1.07849
1.07178
1.06689
1.05957
1.05438
1.04706
1.04156
1.03546
1.02875
1.02264
1.01715
1.01074
1.00494
0.997925
0.992432
0.986023
0.980225
0.974426
0.968628
0.961914
0.955811
0.950012
0.944214
0.937195
0.930786
0.924988
0.919495
0.913391
0.906677
0.901184
0.89447
0.888062
0.881653
0.875854
0.869751
0.863037
0.856323
0.849915
0.843811
0.837708
0.831604
0.825195
0.818787
0.812073
0.805664
0.798645
0.792542
0.785828
0.780029
0.77301
0.767212
0.760498
0.753479
0.746765
0.740051
0.733948
0.727539
0.72052
0.715027
0.708008
0.701599
0.695801
0.689392
0.683289
0.67688
0.671692
0.665283
0.658875
0.653076
0.648193
0.64209
0.636292
0.630798
0.625
0.620422
0.614929
0.609741
0.604553
0.600586
0.595398
0.591125
0.586853
0.582581
0.578308
0.574341
0.570679
0.567322
0.563049
0.559692
0.55603
0.553284
0.549316
0.546265
0.543518
0.540771
0.538635
0.535583
0.533447
0.530396
0.529785
0.526428
0.525818
0.522461
0.522461
0.52063
0.519104
0.518494
0.516357
0.516052
0.515442
0.515442
0.513916
0.513916
0.513306
0.513306
0.513611
0.513916
0.513306
0.513916
0.514526
0.514832
0.516052
0.516663
0.518188
0.518188
0.519104
0.520935
0.521851
0.523682
0.525208
0.526733
0.528259
0.529175
0.531921
0.533142
0.535583
0.537415
0.539551
0.541992
0.543518
0.546265
0.548096
0.550842
0.552673
0.55481
0.556946
0.559082
0.561523
0.563354
0.565491
0.568237
0.570374
0.57251
0.574341
0.576477
0.578613
0.58075
0.582581
0.585022
0.586853
0.588684
0.59082
0.592957
0.595093
0.596619
0.597839
0.599976
0.601807
0.603333
0.605469
0.606995
0.608215
0.609741
0.610657
0.611877
0.612793
0.614319
0.615845
0.61615
0.617676
0.618286
0.619507
0.620422
0.620422
0.620728
0.621338
0.621338
0.621033
0.622559
0.621948
0.621338
0.621948
0.621338
0.620422
0.620117
0.620117
0.619202
0.617981
0.617676
0.61676
0.615845
0.614319
0.613098
0.611877
0.610657
0.609436
0.607605
0.606079
0.604248
0.602722
0.601196
0.598755
0.596924
0.595093
0.593262
0.591125
0.588684
0.586853
0.584412
0.582275
0.579529
0.577087
0.574646
0.571899
0.569763
0.567627
0.56488
0.561829
0.559692
0.556946
0.553894
0.550842
0.549011
0.545959
0.543213
0.540771
0.53772
0.534973
0.532532
0.529785
0.526733
0.523987
0.52124
0.518188
0.515137
0.51239
0.509644
0.505676
0.50293
0.500183
0.498047
0.494385
0.491638
0.488281
0.485229
0.482483
0.479736
0.476379
0.473328
0.471191
0.46814
0.465393
0.462952
0.460205
0.456238
0.454407
0.45105
0.447998
0.445251
0.442505
0.439758
0.437927
0.43457
0.430908
0.429077
0.42511
0.422974
0.420532
0.417786
0.414429
0.411377
0.409241
0.406799
0.404358
0.401611
0.398865
0.396118
0.393372
0.391541
0.388184
0.385742
0.382996
0.379944
0.377502
0.375671
0.37262
0.370483
0.368042
0.365906
0.362854
0.360718
0.358276
0.355835
0.354004
0.351257
0.349426
0.346985
0.344543
0.342102
0.339966
0.338135
0.335999
0.333862
0.332031
0.32959
0.327148
0.325012
0.323792
0.321045
0.319519
0.317383
0.315247
0.313721
0.312195
0.310059
0.308838
0.307007
0.305176
0.30365
0.301208
0.299683
0.298462
0.297241
0.295715
0.293579
0.292053
0.290527
0.288696
0.287781
0.28656
0.285034
0.283203
0.281982
0.280762
0.280151
0.277405
0.276794
0.276184
0.274963
0.272522
0.271606
0.270386
0.268555
0.267029
0.265808
0.264587
0.262756
0.262451
0.260925
0.26001
0.259094
0.257874
0.256958
0.255432
0.254517
0.253601
0.25177
0.25116
0.249939
0.249023
0.248108
0.246582
0.245972
0.245972
0.244141
0.24353
0.24231
0.241699
0.240479
0.240479
0.239258
0.238647
0.237732
0.236511
0.236206
0.235596
0.235291
0.234375
0.233154
0.233154
0.231934
0.231323
0.231018
0.230713
0.230408
0.230103
0.229492
0.228271
0.228271
0.228577
0.228271
0.227966
0.227966
0.227356
0.22644
0.22644
0.226135
0.227356
0.22644
0.22644
0.227051
0.226746
0.226746
0.22644
0.22644
0.227051
0.22644
0.226746
0.227051
0.227051
0.227051
0.227051
0.227356
0.228271
0.227661
0.228271
0.227966
0.227966
0.228271
0.228271
0.228577
0.228577
0.229187
0.229187
0.229797
0.229187
0.230103
0.229797
0.229492
0.229797
0.229492
0.230713
0.229492
0.230408
0.229492
0.230103
0.230103
0.230713
0.230103
0.230103
0.229797
0.230103
0.230713
0.230713
0.230408
0.230408
0.230103
0.230408
0.230713
0.230713
0.230103
0.230408
0.230408
0.231323
0.231018
0.230408
0.230408
0.230713
0.230408
0.230713
0.230103
0.230713
0.230408
0.231018
0.231018
0.230103
0.231018
0.230713
0.230713
0.231323
0.230713
0.231323
0.231323
0.231018
0.231934
0.231018
0.231934
0.231628
0.232544
0.232239
0.233154
0.233154
0.232544
0.231934
0.233154
0.232239
0.232849
0.232849
0.233459
0.233459
0.23407
0.234375
0.233765
0.234985
0.234985
0.234985
0.234985
0.234985
0.235291
0.235901
0.235596
0.235291
0.236511
0.236511
0.237122
0.237427
0.237732
0.238037
0.239563
0.239563
0.239563
0.240784
0.241699
0.242615
0.24353
0.244141
0.245361
0.246277
0.248413
0.249023
0.250244
0.25177
0.253296
0.255432
0.257263
0.259399
0.260925
0.263672
0.266113
0.269165
0.272522
0.274963
0.279236
0.282593
0.286255
0.290527
0.294495
0.299377
0.304565
0.309448
0.314941
0.320435
0.326538
0.332336
0.339966
0.34729
0.353699
0.361633
0.370178
0.378113
0.387268
0.396118
0.404663
0.415344
0.424805
0.435181
0.444641
0.456543
0.467529
0.478821
0.490112
0.501709
0.513916
0.527344
0.540161
0.552673
0.566406
0.579224
0.593262
0.6073
0.621643
0.635986
0.650635
0.665588
0.680542
0.694275
0.710144
0.724792
0.740356
0.756226
0.771484
0.786438
0.802307
0.817871
0.833435
0.848694
0.863342
0.878906
0.894775
0.910645
0.925903
0.941162
0.955505
0.970154
0.986633
1.00128
1.01471
1.02936
1.04462
1.05835
1.07269
1.08582
1.09863
1.11206
1.12549
1.138
1.15051
1.16272
1.17493
1.18683
1.19843
1.2088
1.21948
1.23108
1.24084
1.25153
1.26068
1.26892
1.27869
1.28754
1.29547
1.30341
1.31165
1.31805
1.32568
1.3324
1.3385
1.3446
1.35071
1.35529
1.36017
1.36505
1.36902
1.37329
1.37665
1.37909
1.38336
1.38489
1.38824
1.38885
1.39038
1.39252
1.39435
1.39374
1.39404
1.39465
1.39465
1.39465
1.39374
1.39343
1.39252
1.3916
1.39008
1.38855
1.3858
1.38367
1.38153
1.37909
1.37573
1.37299
1.36993
1.36658
1.36322
1.35895
1.35529
1.35132
1.34705
1.34308
1.3382
1.33423
1.32965
1.32507
1.32019
1.31561
1.31042
1.30524
1.30127
1.29486
1.28937
1.28357
1.27716
1.27228
1.26617
1.26099
1.25397
1.24817
1.24237
1.23688
1.23047
1.22498
1.21826
1.21246
1.20636
1.19995
1.19385
1.18744
1.18134
1.17493
1.16882
1.16272
1.15662
1.14899
1.14319
1.13708
1.13129
1.12457
1.11847
1.11267
1.10626
1.10077
1.09406
1.08887
1.08307
1.07666
1.07086
1.06476
1.05865
1.05286
1.04706
1.04126
1.03485
1.02905
1.02325
1.01715
1.01135
1.00586
1.00006
0.993652
0.988464
0.982056
0.976257
0.970764
0.96405
0.958862
0.952759
0.946655
0.940857
0.935059
0.92865
0.922852
0.916138
0.910339
0.90332
0.897522
0.892029
0.884399
0.878296
0.871887
0.866089
0.85968
0.852966
0.846558
0.840454
0.832825
0.826721
0.819702
0.812988
0.806885
0.800171
0.792847
0.786438
0.779724
0.773315
0.765991
0.760193
0.753174
0.746765
0.740356
0.734253
0.727539
0.72052
0.715027
0.708618
0.701904
0.696106
0.690613
0.684204
0.678406
0.672302
0.666809
0.661621
0.656128
0.649719
0.645142
0.640259
0.634155
0.629883
0.624695
0.619812
0.61615
0.610962
0.6073
0.602722
0.598755
0.594482
0.591736
0.587158
0.583801
0.581055
0.578003
0.574646
0.571899
0.569458
0.565491
0.563049
0.561523
0.559082
0.556641
0.554199
0.553284
0.551147
0.549927
0.548096
0.547485
0.546265
0.545044
0.543213
0.542603
0.541077
0.540466
0.539551
0.538635
0.53772
0.537415
0.536499
0.536194
0.535583
0.535278
0.536194
0.535278
0.536194
0.536194
0.536194
0.537109
0.53772
0.538025
0.53833
0.539551
0.540161
0.540466
0.541992
0.543213
0.543823
0.544739
0.546265
0.547791
0.549011
0.549927
0.551758
0.553284
0.55481
0.555725
0.558167
0.559692
0.561523
0.562134
0.564575
0.566711
0.567627
0.569153
0.571289
0.572205
0.573425
0.575256
0.576782
0.578003
0.579224
0.58136
0.58197
0.583801
0.584106
0.585327
0.586548
0.588379
0.588684
0.589294
0.589905
0.59082
0.592041
0.592346
0.592346
0.593262
0.592651
0.593567
0.593262
0.592957
0.593262
0.593262
0.593262
0.592957
0.592957
0.592651
0.592346
0.591736
0.591431
0.59082
0.589294
0.589294
0.588379
0.587158
0.586548
0.585327
0.583191
0.58197
0.58075
0.578918
0.578308
0.576477
0.57373
0.572815
0.570984
0.568237
0.566406
0.56427
0.563049
0.559998
0.557556
0.556641
0.553894
0.550842
0.548401
0.545349
0.543823
0.540771
0.538025
0.534363
0.532227
0.529785
0.526733
0.523987
0.521545
0.518188
0.515747
0.513306
0.509033
0.506592
0.503845
0.501099
0.498352
0.494995
0.491638
0.489197
0.48584
0.481567
0.478821
0.475464
0.472412
0.46936
0.466003
0.462341
0.45929
0.456543
0.452576
0.449829
0.446777
0.443115
0.440063
0.437012
0.43396
0.430298
0.427246
0.424805
0.420837
0.418091
0.415039
0.411987
0.40863
0.405273
0.402222
0.400391
0.397034
0.393372
0.389709
0.388184
0.384216
0.38147
0.378723
0.375366
0.372009
0.369263
0.366516
0.364075
0.361023
0.357666
0.354919
0.352173
0.349121
0.346985
0.344238
0.341187
0.33844
0.335999
0.334167
0.331116
0.328674
0.325623
0.322876
0.319519
0.317078
0.314026
0.3125
0.309143
0.306702
0.30426
0.301208
0.298767
0.296021
0.294495
0.291748
0.289612
0.286255
0.284729
0.282288
0.280151
0.278625
0.275879
0.274048
0.271301
0.269165
0.267639
0.264587
0.263367
0.26123
0.259399
0.256653
0.255127
0.252686
0.25116
0.249329
0.247192
0.245972
0.244751
0.242004
0.240173
0.238953
0.235901
0.235291
0.233154
0.230713
0.230103
0.227356
0.22644
0.22522
0.223083
0.221558
0.220642
0.218811
0.218506
0.215759
0.214539
0.213318
0.212097
0.211182
0.209656
0.209351
0.20752
0.207214
0.205688
0.204773
0.203247
0.202942
0.201416
0.2005
0.198669
0.197754
0.196533
0.195923
0.194702
0.193481
0.193176
0.192261
0.191345
0.19043
0.19043
0.188293
0.188293
0.187378
0.186768
0.185242
0.185242
0.184021
0.184021
0.183411
0.183105
0.18219
0.18158
0.180969
0.180054
0.180664
0.179749
0.179443
0.178528
0.178528
0.178528
0.178223
0.177307
0.177612
0.177307
0.177307
0.176697
0.176086
0.175781
0.175171
0.175781
0.175781
0.175476
0.174866
0.175476
0.175171
0.174866
0.174866
0.174255
0.174866
0.174561
0.174255
0.174561
0.174255
0.173645
0.173645
0.173035
0.17395
0.17395
0.173645
0.17334
0.173035
0.17395
0.17395
0.173035
0.174255
0.173645
0.174255
0.174561
0.174561
0.174561
0.174866
0.175171
0.174866
0.175171
0.175781
0.176086
0.175781
0.175781
0.176086
0.176392
0.176086
0.176697
0.176392
0.177307
0.177917
0.177307
0.176697
0.178528
0.178833
0.178833
0.178223
0.178833
0.178833
0.179138
0.178833
0.179749
0.179443
0.180054
0.180054
0.180969
0.180664
0.180664
0.18158
0.181274
0.180969
0.181885
0.181885
0.182495
0.181274
0.18219
0.182495
0.183411
0.181885
0.182495
0.18219
0.18219
0.1828
0.1828
0.182495
0.18219
0.182495
0.1828
0.18219
0.1828
0.1828
0.18219
0.1828
0.182495
0.181885
0.181885
0.181885
0.18219
0.181274
0.181274
0.181274
0.180969
0.180969
0.180969
0.180969
0.180969
0.180664
0.180664
0.18158
0.179443
0.18158
0.180359
0.180664
0.180969
0.180664
0.181885
0.181885
0.182495
0.1828
0.183105
0.1828
0.183105
0.183716
0.183716
0.184326
0.184937
0.185547
0.186157
0.186768
0.187073
0.187073
0.188293
0.189514
0.190735
0.19043
0.19165
0.191956
0.193176
0.194702
0.194702
0.196228
0.197449
0.198669
0.200195
0.201416
0.202942
0.204773
0.206909
0.209351
0.212097
0.213928
0.21759
0.221558
0.224915
0.227661
0.231934
0.236511
0.240784
0.245667
0.250244
0.255432
0.26062
0.267029
0.273438
0.279541
0.28717
0.294495
0.301819
0.309753
0.318298
0.327759
0.336609
0.345459
0.35614
0.366211
0.376892
0.388184
0.39917
0.411377
0.423584
0.435181
0.447388
0.461121
0.473938
0.487671
0.501709
0.515747
0.530396
0.544739
0.560303
0.575867
0.591125
0.606995
0.622864
0.638733
0.655212
0.670776
0.687256
0.704346
0.720825
0.737305
0.7547
0.770569
0.787964
0.804138
0.821533
0.838013
0.855103
0.871277
0.888977
0.905762
0.921936
0.938416
0.954285
0.971069
0.987549
1.00403
1.01929
1.03577
1.05011
1.06567
1.08063
1.09619
1.11084
1.12488
1.13892
1.15326
1.16608
1.1795
1.19232
1.20544
1.21704
1.22986
1.24115
1.25275
1.26404
1.27441
1.28448
1.29578
1.30432
1.31378
1.32263
1.33118
1.33942
1.34705
1.35437
1.36261
1.36902
1.37543
1.38153
1.38733
1.39282
1.39771
1.40228
1.40625
1.41144
1.41449
1.41754
1.41968
1.42273
1.42487
1.427
1.42853
1.42944
1.43127
1.43158
1.4325
1.43188
1.43188
1.43158
1.43127
1.42975
1.42853
1.427
1.42548
1.42395
1.42151
1.41937
1.41632
1.41327
1.41022
1.40686
1.40381
1.39984
1.39618
1.39313
1.38855
1.38428
1.38
1.37634
1.37146
1.36627
1.36139
1.3562
1.35101
1.34552
1.34064
1.33514
1.32996
1.32385
1.31866
1.31256
1.30646
1.30157
1.29578
1.28967
1.28326
1.27686
1.27136
1.26587
1.25916
1.25427
1.24817
1.24237
1.23596
1.23047
1.22406
1.21857
1.21155
1.20514
1.19934
1.19324
1.18683
1.18195
1.17554
1.16943
1.16302
1.15631
1.1499
1.14441
1.13953
1.13342
1.12671
1.12122
1.11481
1.10962
1.10321
1.09772
1.09161
1.08582
1.08032
1.0733
1.0675
1.06262
1.05713
1.05103
1.04401
1.03912
1.03363
1.02783
1.02264
1.01654
1.01135
1.00586
1.00006
0.994873
0.98877
0.983887
0.977783
0.97229
0.967102
0.960999
0.955505
0.950317
0.944519
0.93811
0.932617
0.926514
0.92041
0.914612
0.909729
0.903625
0.897217
0.891113
0.885315
0.879822
0.873413
0.867004
0.861206
0.855408
0.849609
0.84259
0.836487
0.829773
0.823364
0.81665
0.809631
0.803528
0.796204
0.789795
0.783386
0.777283
0.770569
0.76355
0.757141
0.750427
0.744019
0.737305
0.730896
0.725708
0.718079
0.711975
0.705872
0.700073
0.693665
0.687866
0.681458
0.675049
0.669861
0.663757
0.658264
0.653076
0.646973
0.641785
0.636597
0.630798
0.626221
0.621643
0.617065
0.612183
0.607605
0.602112
0.59845
0.594788
0.59021
0.585938
0.582886
0.578613
0.575256
0.571594
0.568848
0.564575
0.562439
0.559082
0.557556
0.554199
0.551453
0.549622
0.54718
0.545044
0.542908
0.540161
0.53894
0.537109
0.535583
0.534973
0.533447
0.532227
0.529785
0.529785
0.528564
0.528259
0.527344
0.526733
0.526428
0.525513
0.524902
0.525513
0.524902
0.524902
0.524292
0.523987
0.524902
0.524597
0.524597
0.525513
0.524597
0.524902
0.524902
0.525513
0.526123
0.526428
0.527649
0.527649
0.528564
0.52887
0.529785
0.53009
0.530396
0.531616
0.531616
0.532227
0.532837
0.533142
0.533752
0.534058
0.534363
0.534668
0.535278
0.535583
0.536194
0.537415
0.53772
0.538025
0.53772
0.538025
0.53772
0.538025
0.53833
0.538635
0.53894
0.53833
0.53833
0.538025
0.53772
0.53772
0.53772
0.537415
0.537109
0.535889
0.535583
0.535583
0.534668
0.533752
0.533752
0.533142
0.532227
0.531311
0.530396
0.52887
0.528259
0.526428
0.525818
0.524597
0.523376
0.521851
0.52002
0.518494
0.516968
0.515442
0.513
0.512085
0.510254
0.508423
0.506287
0.50354
0.501709
0.499878
0.497437
0.4953
0.492554
0.490723
0.487366
0.485535
0.481873
0.479431
0.476685
0.473328
0.470581
0.46814
0.465698
0.462952
0.4599
0.455933
0.452881
0.450134
0.446777
0.444336
0.441284
0.437927
0.43396
0.431213
0.428162
0.425415
0.421448
0.418091
0.414124
0.411377
0.407104
0.404663
0.400696
0.396729
0.393372
0.389404
0.386658
0.383301
0.379333
0.375366
0.372009
0.368042
0.364685
0.361328
0.356445
0.353699
0.350342
0.346069
0.342407
0.33905
0.335693
0.332947
0.328674
0.325012
0.322571
0.318298
0.314636
0.311279
0.307617
0.305481
0.300598
0.298767
0.2948
0.290833
0.288086
0.284729
0.281982
0.278015
0.275269
0.273132
0.269775
0.266418
0.263367
0.26001
0.257263
0.254517
0.25177
0.249329
0.246582
0.243835
0.240784
0.238342
0.235901
0.233154
0.230713
0.227966
0.22583
0.222778
0.220032
0.217896
0.215149
0.212708
0.210571
0.209045
0.205994
0.203857
0.201416
0.199585
0.197754
0.195618
0.193481
0.191345
0.189209
0.186768
0.184937
0.1828
0.180664
0.179138
0.176697
0.17395
0.172424
0.171204
0.169373
0.167542
0.16449
0.163879
0.161743
0.160522
0.158081
0.15625
0.154419
0.153198
0.151672
0.149231
0.14801
0.145874
0.144653
0.143127
0.140686
0.140076
0.138855
0.137329
0.135803
0.133667
0.133057
0.131531
0.1297
0.129089
0.128174
0.127258
0.126038
0.124817
0.122986
0.12207
0.12085
0.119019
0.117798
0.117493
0.115662
0.113831
0.11322
0.11261
0.111084
0.110168
0.109863
0.107422
0.106201
0.105896
0.10498
0.104065
0.10376
0.102234
0.101013
0.101318
0.0997925
0.098877
0.0976562
0.0979614
0.0964355
0.0964355
0.0949097
0.0952148
0.093689
0.0939941
0.0930786
0.0930786
0.0930786
0.0918579
0.0915527
0.0921631
0.0909424
0.0909424
0.0909424
0.0906372
0.0906372
0.090332
0.0906372
0.0906372
0.0897217
0.0894165
0.0900269
0.0891113
0.090332
0.0900269
0.0900269
0.090332
0.090332
0.090332
0.0909424
0.0912476
0.0915527
0.0915527
0.0918579
0.0918579
0.0918579
0.0915527
0.0930786
0.0927734
0.0924683
0.0921631
0.0927734
0.0930786
0.0939941
0.0939941
0.093689
0.0946045
0.0949097
0.0952148
0.09552
0.0964355
0.0958252
0.0973511
0.0967407
0.0979614
0.0976562
0.098877
0.0994873
0.0994873
0.0997925
0.100403
0.100403
0.101318
0.101624
0.102539
0.102844
0.103149
0.104065
0.10437
0.104675
0.104675
0.105591
0.105896
0.106506
0.106812
0.107727
0.108032
0.108948
0.109253
0.109863
0.109863
0.110474
0.111389
0.111389
0.112
0.112305
0.112305
0.11322
0.113831
0.114136
0.114441
0.114441
0.115356
0.114746
0.115051
0.115356
0.115967
0.115967
0.116577
0.115967
0.116272
0.116272
0.116882
0.116882
0.116882
0.117798
0.117188
0.117188
0.118103
0.118408
0.117798
0.117188
0.117493
0.118103
0.117493
0.117188
0.117798
0.117188
0.117188
0.117188
0.117188
0.117493
0.117493
0.117188
0.117188
0.116577
0.116272
0.116577
0.116577
0.116577
0.116882
0.117188
0.116882
0.116577
0.116272
0.116882
0.115662
0.115967
0.115662
0.115967
0.115662
0.115356
0.115662
0.115662
0.115662
0.116272
0.115356
0.115967
0.116577
0.115356
0.115967
0.116272
0.115051
0.115356
0.115662
0.115051
0.116272
0.115356
0.115356
0.115051
0.115051
0.115967
0.115662
0.115662
0.116577
0.115967
0.117493
0.116882
0.118408
0.118103
0.118408
0.118713
0.119324
0.119629
0.120239
0.12085
0.12207
0.123901
0.124512
0.125122
0.126648
0.127869
0.129089
0.13092
0.132446
0.134277
0.136108
0.13916
0.140076
0.143738
0.146179
0.148926
0.151978
0.155029
0.158386
0.161438
0.166016
0.170898
0.174866
0.179443
0.184631
0.190125
0.195312
0.201721
0.20752
0.214539
0.221863
0.228882
0.236511
0.243835
0.252075
0.260925
0.270386
0.280457
0.289001
0.299988
0.310059
0.32074
0.332642
0.343628
0.355225
0.367126
0.380249
0.392456
0.406189
0.419922
0.433655
0.447998
0.462341
0.47699
0.491638
0.507202
0.522156
0.538025
0.552368
0.568542
0.584106
0.600891
0.617065
0.632935
0.649719
0.665894
0.682983
0.699463
0.716553
0.733337
0.750122
0.766602
0.782776
0.799561
0.81665
0.832825
0.849609
0.866089
0.882568
0.898438
0.914917
0.930481
0.946045
0.962219
0.977478
0.992432
1.00708
1.02173
1.03668
1.05042
1.06445
1.07819
1.09253
1.10504
1.11816
1.13129
1.14319
1.15448
1.16608
1.17798
1.18866
1.19934
1.20941
1.21948
1.22864
1.2381
1.24695
1.25488
1.26373
1.27197
1.27899
1.28632
1.29272
1.29974
1.30585
1.31195
1.31622
1.32141
1.32538
1.33026
1.33362
1.33728
1.34125
1.34369
1.34613
1.34857
1.35071
1.35254
1.35468
1.35529
1.35559
1.35681
1.35651
1.35681
1.35681
1.35651
1.35529
1.35437
1.35284
1.35132
1.34918
1.34735
1.34491
1.34216
1.33942
1.33698
1.33392
1.33087
1.32751
1.32385
1.3205
1.31622
1.31226
1.30798
1.30371
1.29944
1.29517
1.28998
1.2854
1.28052
1.27625
1.27136
1.26617
1.26068
1.25519
1.25
1.24573
1.24054
1.23474
1.22925
1.22406
1.21857
1.21338
1.20758
1.20209
1.19629
1.1911
1.185
1.1792
1.1731
1.16791
1.16241
1.15601
1.15021
1.14441
1.13892
1.13312
1.12671
1.12091
1.11572
1.10901
1.10352
1.09772
1.09283
1.08704
1.08093
1.07452
1.07056
1.06415
1.05835
1.05286
1.04767
1.04187
1.03638
1.03088
1.0257
1.0202
1.01532
1.00983
1.00494
0.999146
0.994263
0.989075
0.982971
0.978394
0.973206
0.967712
0.962524
0.957031
0.951538
0.94635
0.940552
0.935059
0.930176
0.925293
0.919189
0.913696
0.907593
0.902405
0.897217
0.890808
0.886536
0.880127
0.874634
0.868225
0.862122
0.856018
0.849915
0.843506
0.836792
0.830994
0.825806
0.819092
0.812683
0.805664
0.799561
0.792542
0.786438
0.780029
0.773315
0.766907
0.759277
0.753784
0.74646
0.740051
0.734253
0.726624
0.71991
0.713806
0.707397
0.700684
0.694885
0.687866
0.680847
0.675049
0.66864
0.662842
0.656433
0.650635
0.645142
0.639343
0.632935
0.627441
0.621948
0.61676
0.610962
0.606079
0.600586
0.595703
0.589905
0.585938
0.58075
0.576172
0.570984
0.566711
0.562134
0.558167
0.553894
0.549622
0.546265
0.542908
0.538635
0.536194
0.531921
0.529175
0.525818
0.522766
0.519104
0.517273
0.515442
0.512695
0.509644
0.507812
0.505371
0.50415
0.502014
0.499268
0.498352
0.496826
0.494995
0.494995
0.493164
0.492554
0.492249
0.490417
0.490417
0.488892
0.488281
0.487671
0.486755
0.487366
0.486755
0.486755
0.486755
0.486145
0.487061
0.486145
0.487061
0.486755
0.487366
0.487671
0.488281
0.488586
0.489502
0.488892
0.489807
0.491333
0.491333
0.491943
0.491333
0.493164
0.493774
0.494385
0.495605
0.495911
0.496521
0.497437
0.498352
0.499268
0.499573
0.500793
0.501099
0.502319
0.50293
0.503845
0.50415
0.505066
0.505371
0.506287
0.506287
0.506287
0.506592
0.507202
0.507202
0.507202
0.507202
0.507812
0.507507
0.508118
0.507507
0.507202
0.508118
0.506897
0.506897
0.506592
0.505981
0.505066
0.504761
0.50415
0.503235
0.502319
0.502319
0.500488
0.499878
0.499878
0.497131
0.496826
0.496216
0.494385
0.493774
0.492554
0.491638
0.490112
0.487976
0.48645
0.484619
0.483398
0.481567
0.480042
0.4776
0.475769
0.474243
0.470886
0.46936
0.467224
0.464783
0.462952
0.4599
0.458069
0.455017
0.453491
0.450439
0.448303
0.444946
0.442505
0.439758
0.436401
0.43396
0.430298
0.427856
0.424805
0.421753
0.418396
0.415649
0.411987
0.40863
0.405579
0.402222
0.398865
0.395813
0.393066
0.389404
0.386353
0.382996
0.380859
0.376282
0.372925
0.368958
0.365906
0.361938
0.359802
0.35553
0.352478
0.348816
0.344849
0.342102
0.339355
0.335693
0.332336
0.329285
0.326233
0.323486
0.320435
0.316772
0.313721
0.311279
0.307312
0.30426
0.301514
0.299072
0.295715
0.292358
0.289917
0.286255
0.283203
0.280457
0.27771
0.275574
0.272217
0.270081
0.267029
0.263062
0.261841
0.258179
0.256653
0.253601
0.250244
0.247803
0.245667
0.24292
0.239868
0.237427
0.234985
0.233154
0.230103
0.227966
0.226135
0.223083
0.221252
0.219116
0.216675
0.213623
0.211792
0.210266
0.207825
0.205994
0.203552
0.202026
0.199585
0.197754
0.195007
0.192566
0.191345
0.189514
0.187378
0.185852
0.183716
0.181885
0.179138
0.177307
0.176392
0.174561
0.172729
0.170593
0.169678
0.167542
0.166016
0.164185
0.162048
0.160522
0.158997
0.157166
0.15564
0.154724
0.152588
0.151672
0.150452
0.148621
0.148315
0.145874
0.144653
0.143433
0.141907
0.140381
0.139465
0.13855
0.136719
0.135803
0.133667
0.132751
0.13092
0.130005
0.128479
0.126953
0.126038
0.125122
0.124512
0.122375
0.121765
0.12085
0.119934
0.119324
0.118103
0.117493
0.116577
0.115662
0.115051
0.114441
0.113525
0.112915
0.112305
0.111389
0.111084
0.109863
0.110168
0.109863
0.108948
0.108337
0.108032
0.106506
0.107117
0.106812
0.106201
0.106506
0.104675
0.104675
0.105591
0.104675
0.104065
0.103455
0.103455
0.10376
0.103149
0.102844
0.102234
0.102844
0.102539
0.101624
0.101624
0.101318
0.101013
0.101013
0.100708
0.101318
0.101318
0.101624
0.101318
0.100708
0.100708
0.101318
0.101013
0.101013
0.101318
0.101013
0.101318
0.101624
0.101624
0.103149
0.103455
0.103455
0.103455
0.10437
0.104675
0.10498
0.105591
0.106201
0.106506
0.106506
0.107422
0.107422
0.108032
0.108337
0.108948
0.109863
0.109253
0.110779
0.111084
0.111389
0.111389
0.11261
0.113525
0.113525
0.114136
0.114441
0.115051
0.115967
0.115967
0.115967
0.117188
0.117493
0.117188
0.118103
0.118408
0.119324
0.120239
0.119934
0.120239
0.121155
0.121155
0.12146
0.122375
0.122681
0.123596
0.124207
0.124207
0.125122
0.125427
0.126038
0.126038
0.126953
0.127563
0.127869
0.128174
0.128479
0.128784
0.1297
0.13031
0.130615
0.13092
0.131226
0.132141
0.133057
0.133057
0.133667
0.133972
0.134583
0.134888
0.134888
0.135498
0.135803
0.135498
0.136414
0.136719
0.135803
0.137024
0.137634
0.137634
0.138245
0.138245
0.13855
0.138855
0.13916
0.139465
0.139465
0.139771
0.139465
0.139771
0.13916
0.139465
0.140076
0.140076
0.140381
0.139465
0.139771
0.140076
0.139771
0.140076
0.139771
0.140381
0.139465
0.139771
0.13916
0.13916
0.13916
0.13916
0.138855
0.138855
0.138855
0.13855
0.137939
0.138245
0.137634
0.137939
0.137329
0.137024
0.136414
0.137329
0.137024
0.137329
0.137634
0.137329
0.136719
0.137634
0.137634
0.137329
0.137024
0.136719
0.136719
0.137024
0.136719
0.136414
0.137024
0.135498
0.135803
0.135498
0.135803
0.135803
0.134888
0.135498
0.135498
0.135498
0.135803
0.136414
0.136719
0.136414
0.137329
0.136108
0.136108
0.136719
0.137024
0.137024
0.137024
0.137329
0.137329
0.137939
0.137634
0.138245
0.138855
0.139465
0.140076
0.140686
0.141602
0.142517
0.143127
0.143738
0.144653
0.146484
0.14679
0.148315
0.148926
0.150452
0.151978
0.153809
0.155029
0.157776
0.159912
0.161743
0.164795
0.166626
0.170593
0.173035
0.177002
0.181274
0.184937
0.188904
0.193176
0.197449
0.202942
0.20752
0.213013
0.219116
0.225525
0.231323
0.238342
0.245667
0.252991
0.261536
0.269165
0.277405
0.286865
0.296021
0.305786
0.316162
0.325928
0.336609
0.34729
0.359192
0.372009
0.382385
0.396118
0.40863
0.421753
0.434265
0.448303
0.462036
0.476074
0.490723
0.506287
0.52063
0.535889
0.552063
0.567627
0.582275
0.59906
0.61554
0.630493
0.647278
0.663147
0.680847
0.696716
0.712891
0.72998
0.74646
0.762634
0.780334
0.796204
0.813293
0.828857
0.845337
0.861816
0.878601
0.894165
0.910339
0.925598
0.940857
0.956421
0.971375
0.986938
1.00159
1.01593
1.02997
1.04401
1.05804
1.07178
1.08551
1.09955
1.11206
1.12518
1.13647
1.14899
1.16028
1.17218
1.18378
1.19385
1.20544
1.21582
1.22467
1.23413
1.2442
1.25183
1.26068
1.26862
1.27655
1.28296
1.29059
1.29669
1.30341
1.3092
1.3147
1.31958
1.32416
1.32904
1.3327
1.33698
1.34003
1.34369
1.34644
1.34857
1.35132
1.35345
1.35406
1.3562
1.35681
1.35773
1.35742
1.35742
1.35773
1.35681
1.35651
1.3559
1.35406
1.35345
1.35132
1.34888
1.34796
1.34521
1.34277
1.34003
1.33636
1.33423
1.32996
1.3266
1.32263
1.31866
1.31561
1.31104
1.30676
1.30188
1.29761
1.29364
1.28937
1.28418
1.2796
1.2735
1.26953
1.26495
1.25885
1.25305
1.24756
1.24268
1.23688
1.23138
1.22559
1.21948
1.21399
1.2085
1.20209
1.19629
1.1908
1.185
1.1795
1.17432
1.16791
1.16241
1.15692
1.15082
1.14441
1.13983
1.13403
1.12793
1.12213
1.11664
1.10992
1.10443
1.09924
1.09344
1.08795
1.08246
1.07666
1.07086
1.06445
1.05896
1.05408
1.04828
1.04218
1.03729
1.0321
1.02539
1.0199
1.01501
1.00891
1.00372
0.99762
0.991516
0.985413
0.98053
0.975037
0.969238
0.963135
0.957336
0.952148
0.946655
0.941467
0.935364
0.92926
0.924072
0.917053
0.911865
0.905762
0.900269
0.89386
0.887756
0.881653
0.87616
0.870361
0.863647
0.856934
0.85083
0.845032
0.838623
0.831909
0.825195
0.818787
0.813293
0.80658
0.800476
0.792236
0.786133
0.779114
0.772705
0.765991
0.759583
0.753784
0.746155
0.739441
0.733032
0.726929
0.719604
0.712585
0.706787
0.700378
0.69397
0.687561
0.681458
0.675049
0.668335
0.662537
0.657349
0.65094
0.645447
0.639038
0.634766
0.628357
0.623169
0.618896
0.613403
0.609131
0.604248
0.59967
0.595093
0.591431
0.587158
0.582581
0.579224
0.574646
0.570984
0.567017
0.56366
0.560608
0.556946
0.553284
0.551147
0.547485
0.545349
0.542603
0.540161
0.538635
0.536194
0.533752
0.532227
0.529785
0.529175
0.527344
0.525513
0.524292
0.523682
0.523376
0.522766
0.521545
0.520935
0.52063
0.519714
0.520325
0.519714
0.52002
0.520935
0.520325
0.520935
0.521851
0.522461
0.522766
0.523376
0.524292
0.525208
0.525513
0.527649
0.527954
0.529175
0.530396
0.531616
0.532532
0.533752
0.535278
0.537109
0.53894
0.539246
0.541992
0.543823
0.545654
0.546265
0.548401
0.550232
0.552368
0.554504
0.55603
0.557556
0.559387
0.561523
0.562744
0.564575
0.567017
0.567627
0.569458
0.570679
0.572815
0.574341
0.575562
0.578003
0.579529
0.581055
0.582275
0.583191
0.585327
0.586243
0.586548
0.587769
0.588989
0.59021
0.591431
0.592346
0.592651
0.593872
0.593872
0.594177
0.594788
0.595703
0.596008
0.596619
0.596008
0.596313
0.595703
0.596313
0.595703
0.595703
0.595398
0.593872
0.593262
0.592957
0.592041
0.591125
0.59082
0.588989
0.586853
0.586853
0.585327
0.584412
0.583496
0.581665
0.580139
0.578613
0.576782
0.575562
0.57373
0.571899
0.570068
0.567322
0.56488
0.563049
0.561218
0.558777
0.556335
0.553894
0.550537
0.548706
0.546875
0.543213
0.541382
0.53833
0.535583
0.533447
0.53009
0.526428
0.524292
0.520935
0.518188
0.515137
0.511475
0.509033
0.505981
0.502625
0.499878
0.496216
0.493774
0.489807
0.486755
0.482483
0.480042
0.476379
0.472412
0.469666
0.466003
0.462341
0.458984
0.455627
0.452576
0.447998
0.444946
0.441284
0.438843
0.434265
0.430908
0.426941
0.423584
0.420532
0.41687
0.413513
0.410461
0.406494
0.403748
0.400085
0.396729
0.393372
0.39093
0.387573
0.383606
0.381165
0.378113
0.374756
0.372314
0.368347
0.366211
0.362244
0.359192
0.35675
0.354004
0.351257
0.349121
0.345459
0.343018
0.340881
0.338135
0.335388
0.332642
0.330505
0.327759
0.325317
0.323181
0.319519
0.317993
0.315247
0.312195
0.309753
0.307617
0.306091
0.30365
0.300903
0.299072
0.296631
0.2948
0.291748
0.289917
0.28717
0.285645
0.283203
0.281067
0.278625
0.276489
0.274658
0.272827
0.270691
0.26947
0.266724
0.265198
0.264282
0.261536
0.26001
0.257874
0.256348
0.255432
0.252686
0.25177
0.249634
0.247192
0.246277
0.245361
0.243225
0.242004
0.240173
0.238342
0.236816
0.236206
0.234375
0.232544
0.231018
0.230408
0.227966
0.227661
0.22583
0.224304
0.222778
0.222168
0.220947
0.220642
0.218811
0.218201
0.21637
0.215149
0.214844
0.214233
0.212708
0.212097
0.211487
0.210266
0.209045
0.20813
0.20813
0.206909
0.206299
0.205383
0.205383
0.204163
0.203247
0.202942
0.202637
0.201111
0.201416
0.2005
0.199585
0.19928
0.199585
0.198669
0.197754
0.198059
0.196838
0.197144
0.196228
0.196228
0.196228
0.196228
0.195618
0.195312
0.195007
0.194702
0.195312
0.194397
0.194702
0.194092
0.194702
0.194397
0.194702
0.194397
0.194092
0.194397
0.194092
0.194092
0.193787
0.195312
0.194397
0.195007
0.195007
0.195007
0.195007
0.195007
0.195312
0.195007
0.195312
0.195618
0.195312
0.195312
0.195618
0.196838
0.196228
0.196228
0.196533
0.197144
0.197449
0.197144
0.197449
0.198059
0.198669
0.198669
0.19928
0.19928
0.19989
0.2005
0.200195
0.2005
0.200806
0.202026
0.201721
0.201721
0.202332
0.202637
0.202026
0.202332
0.203552
0.204163
0.204163
0.204468
0.205078
0.205994
0.205688
0.206909
0.207825
0.20752
0.207825
0.208435
0.209045
0.209656
0.209656
0.210571
0.211487
0.212097
0.212097
0.211487
0.213623
0.213928
0.215149
0.215759
0.216675
0.21637
0.21698
0.217285
0.218506
0.219116
0.219421
0.220032
0.220032
0.220642
0.221558
0.221558
0.221863
0.222473
0.222778
0.222778
0.223694
0.223694
0.226135
0.224915
0.22583
0.226746
0.227051
0.227356
0.227966
0.227661
0.227661
0.227661
0.228271
0.228271
0.228882
0.229492
0.229187
0.230103
0.229797
0.229492
0.230103
0.229797
0.230103
0.230713
0.231323
0.230713
0.230408
0.230103
0.229492
0.229492
0.230103
0.229187
0.228577
0.228577
0.228271
0.227661
0.227356
0.22644
0.227661
0.22644
0.22583
0.22522
0.225525
0.224915
0.224609
0.224915
0.224609
0.224304
0.223999
0.223694
0.223389
0.223083
0.222778
0.222778
0.221252
0.222473
0.221558
0.220947
0.221558
0.220642
0.220032
0.220947
0.219727
0.219727
0.220337
0.219116
0.219421
0.220032
0.220337
0.218811
0.220032
0.218811
0.218811
0.218811
0.218811
0.218811
0.219116
0.219421
0.218811
0.219116
0.218811
0.219116
0.218811
0.219727
0.220947
0.220337
0.220642
0.220642
0.221252
0.221252
0.221863
0.222168
0.222168
0.223083
0.222473
0.223999
0.224915
0.225525
0.22644
0.227051
0.227966
0.229492
0.229797
0.232239
0.234375
0.235291
0.238037
0.238647
0.241699
0.243835
0.246887
0.249634
0.252686
0.256958
0.260315
0.264282
0.268555
0.272522
0.27832
0.281982
0.28717
0.294189
0.300293
0.306702
0.313416
0.32074
0.327759
0.335693
0.344238
0.352173
0.361328
0.369873
0.379639
0.389099
0.399475
0.410461
0.420532
0.432129
0.443115
0.455627
0.467529
0.480042
0.493164
0.505981
0.52002
0.534058
0.547791
0.562134
0.577087
0.592041
0.606079
0.621033
0.635986
0.652161
0.66803
0.682983
0.698242
0.714111
0.730591
0.746155
0.76355
0.780029
0.794678
0.812073
0.828857
0.844116
0.861206
0.87738
0.893555
0.909424
0.924377
0.940247
0.956116
0.971985
0.987244
1.0022
1.01776
1.0318
1.04706
1.06171
1.07666
1.09009
1.10382
1.11694
1.13129
1.1441
1.15753
1.17004
1.18164
1.19415
1.20544
1.21704
1.22772
1.23779
1.24786
1.25824
1.26801
1.27655
1.28632
1.29486
1.3028
1.31104
1.31897
1.32568
1.33301
1.33942
1.34552
1.35101
1.35651
1.36078
1.36597
1.36993
1.3739
1.37726
1.38123
1.38397
1.38672
1.38916
1.39069
1.39282
1.39526
1.39557
1.3974
1.39801
1.39771
1.39801
1.39862
1.39801
1.39679
1.39618
1.39496
1.39343
1.39221
1.39038
1.38855
1.3858
1.38367
1.38062
1.37695
1.37482
1.37085
1.36841
1.36536
1.35986
1.35651
1.35284
1.34857
1.3443
1.33972
1.33514
1.33057
1.32507
1.31958
1.31531
1.30951
1.30402
1.29913
1.29333
1.28754
1.28174
1.27655
1.27075
1.26556
1.25946
1.25366
1.24725
1.24115
1.23596
1.22986
1.22314
1.21643
1.21094
1.20483
1.19843
1.19324
1.18652
1.18011
1.17401
1.1676
1.16241
1.15509
1.14929
1.1438
1.1377
1.13129
1.12488
1.11908
1.11267
1.10687
1.10016
1.09406
1.08856
1.08215
1.07635
1.06934
1.06293
1.05591
1.05042
1.04401
1.03699
1.03119
1.02539
1.01868
1.01288
1.00647
1.00037
0.994263
0.988159
0.98114
0.975037
0.968933
0.962524
0.955505
0.949097
0.942078
0.935974
0.92865
0.922241
0.915833
0.908508
0.9021
0.894775
0.887451
0.881653
0.873718
0.866699
0.860596
0.852356
0.846863
0.838623
0.831909
0.82428
0.81665
0.809021
0.802917
0.793762
0.786743
0.779724
0.772705
0.765076
0.758362
0.750732
0.743713
0.737305
0.72937
0.722656
0.715942
0.709229
0.701904
0.694885
0.687866
0.681152
0.674744
0.66864
0.662231
0.655823
0.649414
0.643616
0.637512
0.632019
0.626526
0.620422
0.615234
0.610046
0.605164
0.59967
0.595093
0.590515
0.586548
0.58197
0.577393
0.57312
0.569763
0.565186
0.562134
0.558472
0.555115
0.551453
0.548096
0.545044
0.542297
0.540161
0.537109
0.535583
0.533447
0.531006
0.529175
0.527649
0.525818
0.524597
0.523376
0.521545
0.520325
0.520325
0.519409
0.518494
0.517883
0.517273
0.517578
0.517273
0.517273
0.517273
0.516968
0.518188
0.517883
0.519104
0.519104
0.519714
0.520325
0.520935
0.522766
0.523071
0.524597
0.526123
0.527039
0.527954
0.52948
0.530701
0.532837
0.533142
0.535583
0.537415
0.539246
0.540771
0.542297
0.545044
0.546265
0.547791
0.550537
0.551758
0.553894
0.55603
0.557251
0.559387
0.561218
0.563049
0.565796
0.567627
0.568848
0.571594
0.57373
0.574341
0.576782
0.578308
0.580444
0.582275
0.583801
0.585327
0.587463
0.589294
0.588989
0.592041
0.592957
0.593262
0.595703
0.596924
0.597229
0.59845
0.599365
0.600891
0.600891
0.601807
0.601807
0.603027
0.603027
0.604248
0.604858
0.604553
0.604858
0.604858
0.604248
0.603638
0.603943
0.603333
0.602417
0.602112
0.600891
0.59967
0.598755
0.598755
0.598145
0.596313
0.596313
0.594482
0.593872
0.592651
0.591736
0.589905
0.588379
0.586853
0.585938
0.583496
0.58136
0.579529
0.577393
0.575256
0.573425
0.571289
0.569458
0.566406
0.56427
0.562439
0.559692
0.557251
0.554199
0.552063
0.549927
0.546875
0.544128
0.540771
0.538025
0.534973
0.531921
0.529175
0.525513
0.521545
0.518799
0.516052
0.512085
0.509338
0.506592
0.503235
0.499573
0.496826
0.492859
0.490417
0.487061
0.484314
0.480042
0.476074
0.473022
0.469055
0.466919
0.462646
0.458984
0.455933
0.451965
0.447998
0.445557
0.441284
0.437927
0.43457
0.430908
0.427551
0.42511
0.420837
0.418396
0.415344
0.411682
0.408325
0.404968
0.401917
0.398865
0.394897
0.392456
0.389404
0.386658
0.382996
0.379944
0.376587
0.373535
0.371094
0.367737
0.365295
0.362244
0.359802
0.356445
0.353394
0.350952
0.347595
0.345154
0.342407
0.339966
0.336914
0.334167
0.330811
0.328369
0.325317
0.32196
0.319824
0.317688
0.314941
0.312805
0.310364
0.307312
0.304871
0.302429
0.299988
0.297852
0.295105
0.292664
0.289917
0.287781
0.285034
0.283203
0.280151
0.278625
0.276794
0.274658
0.271912
0.270691
0.26825
0.266418
0.265198
0.262451
0.261536
0.259705
0.256958
0.256958
0.253906
0.25177
0.250549
0.248718
0.247498
0.245361
0.244141
0.241699
0.240173
0.239258
0.238342
0.236511
0.23468
0.233154
0.231934
0.230713
0.228577
0.227051
0.22644
0.22522
0.223999
0.221558
0.220642
0.219421
0.218506
0.21759
0.216675
0.215149
0.213623
0.213013
0.211487
0.211487
0.209961
0.20874
0.20813
0.20752
0.207214
0.205994
0.205078
0.203857
0.203552
0.203247
0.201721
0.201416
0.200806
0.19928
0.198669
0.198669
0.197449
0.197144
0.195618
0.195618
0.194702
0.193176
0.193787
0.192566
0.192261
0.191345
0.190735
0.19043
0.189514
0.188904
0.188599
0.188904
0.187378
0.187683
0.186768
0.187073
0.186462
0.186157
0.185547
0.186462
0.185852
0.185852
0.185547
0.185852
0.185242
0.184937
0.184937
0.185852
0.185547
0.185242
0.185852
0.185852
0.186462
0.185852
0.186462
0.186462
0.186768
0.186768
0.187073
0.187378
0.188293
0.188293
0.187378
0.187378
0.188904
0.188293
0.188293
0.188904
0.188599
0.189209
0.188904
0.189514
0.190125
0.189819
0.190125
0.190125
0.189819
0.190735
0.191345
0.190735
0.191345
0.192566
0.192871
0.192871
0.193481
0.194397
0.194092
0.195007
0.195007
0.195618
0.195923
0.196228
0.197144
0.198059
0.198364
0.198669
0.199585
0.19989
0.200195
0.2005
0.200806
0.201721
0.202332
0.202637
0.203247
0.204468
0.204468
0.204468
0.205383
0.205688
0.205688
0.205688
0.206299
0.206909
0.207825
0.207825
0.20752
0.20874
0.209351
0.209961
0.210571
0.210266
0.210571
0.211792
0.212097
0.211792
0.212097
0.213318
0.213623
0.213623
0.214233
0.214844
0.214233
0.214844
0.215454
0.215454
0.215454
0.215454
0.21637
0.21637
0.21637
0.216675
0.21637
0.216675
0.217285
0.21637
0.21698
0.217285
0.216675
0.216064
0.216064
0.215759
0.215759
0.215149
0.215454
0.214539
0.214233
0.213623
0.214233
0.213623
0.212708
0.213013
0.212097
0.212097
0.212097
0.211792
0.211182
0.210876
0.210571
0.210876
0.209961
0.209961
0.209351
0.20874
0.20813
0.20752
0.207825
0.20813
0.207214
0.207214
0.207214
0.206909
0.206604
0.207214
0.20752
0.206604
0.205994
0.206299
0.206604
0.206604
0.206604
0.205994
0.205078
0.206299
0.206299
0.206604
0.206299
0.206604
0.206909
0.20752
0.20752
0.20813
0.208435
0.209351
0.210571
0.210266
0.210266
0.211792
0.212097
0.213623
0.214233
0.215149
0.216675
0.218201
0.219116
0.221252
0.222778
0.224915
0.227356
0.228882
0.231628
0.235596
0.237427
0.240784
0.243835
0.247498
0.252075
0.256348
0.260315
0.265808
0.270386
0.276184
0.281067
0.28656
0.293579
0.300293
0.307007
0.313721
0.322571
0.3302
0.338745
0.346985
0.357056
0.365601
0.375977
0.386047
0.396729
0.407715
0.419312
0.430298
0.442505
0.455322
0.46814
0.480652
0.49408
0.508423
0.521545
0.535278
0.550842
0.565186
0.581055
0.595398
0.610962
0.627136
0.641785
0.658569
0.674744
0.690918
0.708008
0.725098
0.741577
0.758057
0.774841
0.792236
0.808716
0.826111
0.84259
0.859985
0.87738
0.894165
0.911865
0.928345
0.945129
0.961304
0.978394
0.993652
1.01074
1.02631
1.04248
1.05835
1.0733
1.08948
1.10352
1.11969
1.13312
1.14777
1.16211
1.17584
1.18958
1.203
1.21613
1.22894
1.24146
1.25275
1.26495
1.27655
1.28754
1.29883
1.3089
1.31866
1.32904
1.3382
1.34705
1.3559
1.36444
1.37299
1.38031
1.38763
1.39526
1.40198
1.40808
1.4151
1.41937
1.42487
1.42944
1.43341
1.43738
1.44073
1.4447
1.44714
1.44958
1.45081
1.45325
1.45416
1.45538
1.4566
1.45691
1.45691
1.4566
1.45691
1.45569
1.45569
1.45386
1.45294
1.45111
1.44897
1.44653
1.44409
1.44196
1.43921
1.43616
1.4325
1.42944
1.42578
1.42151
1.41724
1.41357
1.40869
1.40442
1.39954
1.39526
1.38977
1.3855
1.38031
1.37573
1.36963
1.36475
1.35925
1.35437
1.34766
1.34155
1.33606
1.32935
1.32416
1.31866
1.31165
1.30585
1.29944
1.29333
1.28693
1.28082
1.27441
1.26801
1.26129
1.25549
1.24939
1.24298
1.23657
1.23047
1.22314
1.21704
1.21033
1.20453
1.19843
1.19202
1.1853
1.17889
1.17279
1.16638
1.16028
1.15387
1.14716
1.14166
1.13556
1.12885
1.12366
1.11725
1.11084
1.10504
1.09863
1.09253
1.08643
1.08032
1.07483
1.06842
1.06293
1.05652
1.05164
1.04492
1.03912
1.03333
1.02661
1.02234
1.01562
1.01013
1.00433
0.998535
0.992432
0.986023
0.979919
0.974121
0.967712
0.961914
0.955505
0.949402
0.943298
0.937195
0.931091
0.924683
0.917969
0.91156
0.905151
0.899658
0.893555
0.88623
0.881042
0.874023
0.866394
0.85968
0.853577
0.846252
0.839844
0.83252
0.82489
0.818787
0.811157
0.805054
0.797729
0.79071
0.783691
0.777283
0.769653
0.763245
0.757141
0.749817
0.743713
0.736389
0.730286
0.723267
0.716553
0.709839
0.704041
0.697327
0.691223
0.684814
0.679321
0.672607
0.666504
0.660706
0.655212
0.649719
0.644531
0.639038
0.633545
0.628662
0.623169
0.618896
0.614014
0.609741
0.604553
0.600891
0.596619
0.592346
0.588379
0.584412
0.581665
0.576782
0.57373
0.570374
0.567017
0.564575
0.561523
0.558472
0.555725
0.554199
0.551453
0.549011
0.54718
0.545349
0.542908
0.541382
0.540161
0.538635
0.537109
0.536194
0.534973
0.534058
0.533142
0.532227
0.531006
0.531006
0.530396
0.529785
0.529785
0.530396
0.53009
0.52948
0.52948
0.53009
0.530396
0.529785
0.531006
0.530701
0.531921
0.532837
0.533752
0.534363
0.534363
0.536194
0.537109
0.53833
0.539551
0.541077
0.541382
0.542908
0.544128
0.544739
0.546265
0.546875
0.548401
0.550537
0.552063
0.552063
0.553284
0.554504
0.55542
0.556641
0.557251
0.559387
0.559998
0.561523
0.561829
0.563354
0.564575
0.565186
0.566711
0.567932
0.568237
0.568542
0.570068
0.570068
0.570679
0.571289
0.57251
0.571899
0.57251
0.57251
0.57312
0.572815
0.572205
0.572205
0.572205
0.572205
0.571594
0.570679
0.570374
0.570068
0.568542
0.567932
0.566711
0.566406
0.565186
0.56427
0.563049
0.561523
0.560303
0.557861
0.557861
0.556641
0.554504
0.553589
0.551453
0.549622
0.548096
0.545654
0.544434
0.541382
0.539856
0.53772
0.535583
0.533752
0.530701
0.528259
0.525818
0.523682
0.52002
0.517578
0.515442
0.513
0.509949
0.506897
0.503845
0.500488
0.498657
0.495605
0.492554
0.490112
0.48645
0.483398
0.480652
0.47699
0.473633
0.470886
0.467834
0.463867
0.461121
0.457153
0.454407
0.450439
0.447693
0.443726
0.440674
0.437317
0.43335
0.429688
0.426331
0.422974
0.418701
0.415344
0.412292
0.408325
0.403748
0.401001
0.397034
0.393066
0.389404
0.385742
0.382385
0.379333
0.375061
0.372009
0.368347
0.364685
0.361328
0.357361
0.354309
0.350647
0.3479
0.343628
0.339966
0.336609
0.332947
0.329895
0.326233
0.323486
0.319519
0.316162
0.313416
0.310669
0.306396
0.303345
0.300293
0.296631
0.293579
0.291443
0.288086
0.284119
0.283203
0.279846
0.275574
0.273438
0.270081
0.267334
0.264893
0.261841
0.259094
0.256653
0.253296
0.25116
0.248108
0.245667
0.24353
0.241699
0.238647
0.235596
0.233765
0.231628
0.228577
0.226746
0.224915
0.222473
0.220032
0.217896
0.214539
0.213013
0.211792
0.209351
0.207214
0.204773
0.202942
0.201111
0.199585
0.197144
0.195923
0.193176
0.192261
0.190125
0.187683
0.186768
0.184937
0.183105
0.180664
0.179138
0.177917
0.176086
0.175171
0.173035
0.171509
0.170288
0.168457
0.167542
0.165405
0.165405
0.162964
0.162048
0.159912
0.158997
0.158081
0.156555
0.155334
0.154724
0.152893
0.151672
0.150757
0.149231
0.148315
0.147095
0.14679
0.144653
0.144043
0.143433
0.142212
0.140991
0.140076
0.139771
0.13916
0.137939
0.137024
0.136108
0.135498
0.133972
0.133362
0.132446
0.131836
0.131226
0.130005
0.1297
0.129395
0.128479
0.127563
0.126648
0.127563
0.126343
0.126038
0.125732
0.125427
0.125427
0.124512
0.124207
0.124207
0.124512
0.124207
0.124512
0.123291
0.123901
0.122986
0.123291
0.122986
0.123596
0.122681
0.123291
0.123291
0.122986
0.123901
0.123291
0.122986
0.122986
0.123596
0.122986
0.123291
0.123596
0.122375
0.123596
0.123596
0.123596
0.123901
0.123596
0.124207
0.124207
0.124207
0.125427
0.124512
0.124817
0.123901
0.125427
0.125427
0.125427
0.125427
0.125122
0.126648
0.126038
0.126038
0.127258
0.127258
0.126953
0.127563
0.127869
0.128174
0.127563
0.128174
0.128479
0.129395
0.128784
0.128784
0.130615
0.130615
0.131836
0.131531
0.132446
0.132141
0.133362
0.132446
0.133667
0.134888
0.133972
0.135803
0.135803
0.136719
0.137634
0.137634
0.138245
0.138855
0.139771
0.139465
0.140381
0.140381
0.141296
0.142212
0.142212
0.142517
0.143433
0.143433
0.144043
0.144348
0.145264
0.145569
0.146484
0.1474
0.1474
0.148621
0.149231
0.149841
0.150757
0.150757
0.150757
0.152893
0.153198
0.153809
0.154419
0.155029
0.155029
0.156555
0.156555
0.157166
0.158386
0.158691
0.159302
0.159607
0.159912
0.161133
0.161438
0.162048
0.162964
0.163269
0.163269
0.163879
0.16449
0.16449
0.16449
0.1651
0.165405
0.164795
0.164795
0.1651
0.166016
0.165405
0.166321
0.16571
0.166321
0.166626
0.166321
0.1651
0.16571
0.16571
0.166016
0.16571
0.16571
0.166016
0.166321
0.165405
0.164185
0.1651
0.163879
0.163879
0.163574
0.163574
0.162964
0.162964
0.162354
0.161438
0.161743
0.161743
0.160828
0.160828
0.160522
0.160217
0.160217
0.159302
0.158997
0.158691
0.158386
0.157471
0.157471
0.157471
0.15686
0.156555
0.15625
0.155945
0.15686
0.155334
0.15564
0.155029
0.154419
0.155029
0.154114
0.153503
0.153809
0.153809
0.152893
0.153503
0.153198
0.153198
0.153198
0.152283
0.153809
0.151978
0.153503
0.153198
0.152893
0.152588
0.154114
0.153809
0.154724
0.155334
0.155029
0.155334
0.156555
0.15686
0.157776
0.158997
0.159607
0.160828
0.161743
0.163269
0.16449
0.16571
0.167847
0.169678
0.171204
0.173645
0.176697
0.178833
0.18158
0.184937
0.187988
0.19165
0.195312
0.19928
0.202942
0.20752
0.212097
0.218201
0.224304
0.229797
0.235596
0.244141
0.249939
0.257263
0.265198
0.274048
0.282288
0.290833
0.300293
0.310364
0.319824
0.330505
0.341797
0.352478
0.36438
0.376892
0.388794
0.401001
0.414124
0.428467
0.441895
0.456238
0.469971
0.485229
0.500183
0.516357
0.531921
0.548401
0.56427
0.581055
0.596924
0.615234
0.631714
0.648499
0.667114
0.684204
0.700989
0.719604
0.737305
0.755615
0.773621
0.791321
0.809937
0.827332
0.845642
0.863953
0.881958
0.900879
0.918579
0.93689
0.954285
0.97229
0.989685
1.00708
1.02386
1.04156
1.05774
1.07452
1.091
1.10687
1.12274
1.13892
1.15387
1.16882
1.18378
1.19812
1.21246
1.2262
1.24023
1.25305
1.26556
1.27838
1.29059
1.30219
1.31378
1.32416
1.33484
1.34491
1.35498
1.36383
1.37329
1.38184
1.39038
1.3974
1.40472
1.41235
1.41876
1.42578
1.43097
1.43616
1.44257
1.44714
1.45142
1.45477
1.45905
1.4621
1.46484
1.4679
1.47095
1.47156
1.47369
1.47491
1.47583
1.47705
1.47705
1.47736
1.47705
1.47675
1.47644
1.47461
1.474
1.47247
1.47034
1.46881
1.46637
1.46362
1.46149
1.45813
1.45508
1.45172
1.44775
1.4447
1.44073
1.43707
1.4325
1.42883
1.42395
1.41968
1.41541
1.41052
1.40533
1.40015
1.39587
1.39038
1.38458
1.37909
1.37329
1.3678
1.3623
1.35681
1.3504
1.3443
1.3385
1.3327
1.3266
1.32111
1.31561
1.3089
1.3028
1.29669
1.29059
1.28448
1.27838
1.27197
1.26587
1.25977
1.25336
1.24725
1.24023
1.23444
1.22803
1.22192
1.21552
1.2085
1.203
1.19629
1.18958
1.18378
1.17767
1.17126
1.16486
1.15906
1.15326
1.14624
1.14105
1.13464
1.12823
1.12213
1.11572
1.10992
1.10413
1.09772
1.09161
1.08643
1.08063
1.07452
1.06934
1.06293
1.05682
1.05072
1.04431
1.03851
1.0321
1.026
1.0199
1.0141
1.00708
1.0022
0.995178
0.989075
0.982666
0.975647
0.969543
0.963135
0.956726
0.951233
0.944214
0.93811
0.931702
0.924988
0.918579
0.91156
0.905151
0.898438
0.891418
0.88501
0.877991
0.870972
0.864258
0.857544
0.850525
0.844116
0.836487
0.830078
0.822754
0.815735
0.809326
0.802307
0.795593
0.788879
0.782471
0.775757
0.768433
0.762329
0.755005
0.747681
0.741882
0.734863
0.72876
0.72113
0.715637
0.709534
0.701904
0.696106
0.690002
0.683899
0.677795
0.671997
0.666199
0.660706
0.654907
0.650024
0.643616
0.638733
0.633545
0.627136
0.623169
0.618286
0.612488
0.608215
0.602722
0.59906
0.594788
0.589905
0.586243
0.58197
0.578003
0.574951
0.571594
0.567627
0.564575
0.561523
0.558472
0.555115
0.552368
0.550232
0.547485
0.544739
0.542603
0.540771
0.538025
0.536499
0.534973
0.533447
0.531616
0.52948
0.528259
0.527344
0.527344
0.526428
0.524597
0.524292
0.523376
0.522766
0.522461
0.521851
0.521545
0.520935
0.520935
0.520935
0.52124
0.52124
0.521545
0.521545
0.521851
0.522766
0.523071
0.522766
0.523682
0.524902
0.525513
0.525818
0.526428
0.527344
0.527954
0.52887
0.52948
0.52948
0.531006
0.531311
0.532532
0.532227
0.533447
0.534058
0.534058
0.535278
0.536804
0.536804
0.536804
0.53772
0.538635
0.53833
0.53894
0.540161
0.539856
0.540466
0.541382
0.541077
0.541382
0.541992
0.541687
0.541992
0.542603
0.542603
0.542297
0.542603
0.542297
0.541687
0.541077
0.541382
0.541382
0.540161
0.540771
0.540161
0.53894
0.538635
0.538025
0.537415
0.537415
0.535889
0.535583
0.534058
0.532532
0.531616
0.530701
0.52948
0.528564
0.526733
0.525513
0.524292
0.522766
0.52063
0.519104
0.517578
0.514832
0.513916
0.511169
0.509338
0.506897
0.504761
0.502014
0.499878
0.498352
0.4953
0.49408
0.491028
0.487976
0.485535
0.483398
0.480347
0.478516
0.475464
0.471802
0.46936
0.466614
0.463562
0.460205
0.457153
0.454407
0.450745
0.447998
0.444946
0.441895
0.438538
0.435486
0.431519
0.429077
0.426025
0.422974
0.419312
0.415955
0.413208
0.409241
0.406189
0.402527
0.398865
0.394897
0.392456
0.388489
0.385437
0.381775
0.377808
0.374756
0.371399
0.367432
0.36438
0.361633
0.357361
0.355225
0.351562
0.348206
0.344543
0.341797
0.33844
0.335388
0.331726
0.328369
0.325317
0.322571
0.318909
0.315552
0.31311
0.309753
0.307007
0.303955
0.301208
0.298462
0.295105
0.292664
0.289612
0.28656
0.284119
0.280151
0.277405
0.275574
0.271301
0.269165
0.266418
0.263367
0.260925
0.257874
0.255737
0.252991
0.249634
0.247803
0.245972
0.242615
0.239868
0.237732
0.236206
0.233459
0.231628
0.229492
0.227051
0.223999
0.222778
0.220032
0.217896
0.216064
0.213013
0.211182
0.209656
0.207214
0.204773
0.203857
0.201721
0.19928
0.197449
0.195312
0.193481
0.19165
0.189514
0.188293
0.186462
0.183716
0.18219
0.180664
0.178528
0.176392
0.174866
0.173035
0.171509
0.169983
0.168152
0.166016
0.164795
0.163574
0.161743
0.160217
0.158691
0.15686
0.156555
0.155029
0.153503
0.151367
0.150757
0.148621
0.1474
0.145569
0.144348
0.143433
0.141602
0.140381
0.139465
0.137634
0.137024
0.135803
0.134583
0.133362
0.132446
0.131836
0.130615
0.1297
0.127869
0.126953
0.126343
0.125122
0.124512
0.123291
0.123596
0.121765
0.121155
0.119934
0.119019
0.118408
0.118103
0.116882
0.116272
0.115662
0.114746
0.114136
0.114136
0.112915
0.112305
0.112305
0.111084
0.111389
0.110474
0.109863
0.109253
0.109558
0.108643
0.108337
0.107117
0.107727
0.106812
0.106812
0.106506
0.106812
0.106812
0.105591
0.106201
0.105896
0.106201
0.10498
0.105896
0.105286
0.105591
0.104675
0.104675
0.10437
0.105591
0.10498
0.104675
0.10498
0.105591
0.105286
0.106201
0.106201
0.106201
0.105896
0.105591
0.106506
0.106812
0.106812
0.106812
0.107117
0.107422
0.107422
0.108032
0.107422
0.108643
0.108948
0.109863
0.109558
0.109863
0.110474
0.110779
0.112305
0.111694
0.11261
0.112915
0.11261
0.113525
0.113525
0.113831
0.113831
0.114746
0.115051
0.115051
0.115356
0.116577
0.117188
0.116577
0.117493
0.118103
0.118103
0.118713
0.119324
0.119934
0.120239
0.120239
0.12085
0.12146
0.121765
0.12207
0.122681
0.122681
0.122986
0.123291
0.124512
0.124207
0.124817
0.125122
0.125732
0.126343
0.126953
0.127563
0.127258
0.128479
0.128174
0.128784
0.128479
0.129395
0.129395
0.130005
0.1297
0.13092
0.130615
0.131836
0.131836
0.132141
0.131836
0.132141
0.132751
0.133667
0.133972
0.133667
0.134583
0.134583
0.135193
0.136108
0.136108
0.136719
0.136719
0.137024
0.137329
0.137634
0.137024
0.136719
0.137024
0.137634
0.137634
0.138245
0.137634
0.13855
0.137939
0.138245
0.138855
0.13855
0.13916
0.139771
0.138855
0.13916
0.13916
0.13916
0.13916
0.139465
0.139465
0.140381
0.139771
0.139465
0.13916
0.139465
0.139771
0.140076
0.139771
0.139465
0.140381
0.140381
0.139465
0.139465
0.139771
0.138855
0.13916
0.139465
0.138855
0.13855
0.13855
0.137939
0.137634
0.137329
0.137634
0.136719
0.137024
0.136108
0.136719
0.135803
0.136108
0.135803
0.134583
0.135498
0.133972
0.133667
0.133667
0.133362
0.133667
0.132751
0.132446
0.132141
0.131836
0.131226
0.131531
0.131226
0.131226
0.130615
0.13092
0.130615
0.130005
0.130005
0.129089
0.129395
0.129395
0.129395
0.128784
0.128479
0.128479
0.128174
0.128784
0.128784
0.128479
0.127869
0.128784
0.128479
0.128784
0.129395
0.1297
0.1297
0.130005
0.130005
0.130615
0.13092
0.132141
0.132446
0.133972
0.133667
0.135193
0.137024
0.138245
0.13916
0.141602
0.143127
0.144958
0.14679
0.149231
0.150757
0.153809
0.157166
0.160522
0.163879
0.167542
0.171509
0.176086
0.180054
0.184326
0.188904
0.194092
0.2005
0.206299
0.212097
0.219727
0.227051
0.233765
0.241394
0.249939
0.258789
0.267334
0.276794
0.28656
0.296631
0.307922
0.317993
0.329285
0.340271
0.352173
0.36377
0.377197
0.390015
0.402832
0.415955
0.430298
0.444641
0.458374
0.473022
0.487976
0.503235
0.518188
0.533142
0.549011
0.565186
0.581055
0.597534
0.613403
0.629883
0.646057
0.662231
0.679016
0.69519
0.711975
0.72876
0.745239
0.762329
0.779114
0.795288
0.812683
0.828552
0.845032
0.862427
0.877991
0.89447
0.910645
0.926819
0.942688
0.958252
0.973816
0.987854
1.00372
1.01868
1.03241
1.04706
1.0611
1.07544
1.08856
1.10229
1.11481
1.12793
1.13983
1.15143
1.16394
1.17523
1.18713
1.19781
1.20819
1.21857
1.22803
1.23749
1.24634
1.25519
1.26373
1.27167
1.2793
1.28723
1.29456
1.30005
1.30737
1.31287
1.31927
1.32416
1.32904
1.33423
1.3385
1.34186
1.34583
1.34888
1.35132
1.35498
1.35773
1.35895
1.36078
1.36169
1.36261
1.36414
1.36414
1.36475
1.36444
1.36475
1.36414
1.36322
1.36292
1.36108
1.35986
1.35834
1.3562
1.35437
1.35193
1.34949
1.34644
1.34369
1.34125
1.33698
1.33392
1.33026
1.3266
1.32294
1.31836
1.31409
1.30981
1.30585
1.30066
1.29578
1.2915
1.28632
1.28143
1.27625
1.27106
1.26617
1.26038
1.25488
1.25
1.24451
1.2381
1.23291
1.22711
1.22192
1.21674
1.21033
1.20514
1.19934
1.19415
1.18744
1.18195
1.17645
1.17096
1.16486
1.15906
1.15387
1.14746
1.14136
1.13586
1.13007
1.12457
1.11847
1.11298
1.10687
1.10138
1.09558
1.0907
1.08551
1.07941
1.0733
1.06873
1.06201
1.05621
1.05103
1.04553
1.04004
1.03424
1.02814
1.02264
1.01776
1.01166
1.00586
1.00067
0.994568
0.98877
0.983276
0.978699
0.973206
0.966797
0.961304
0.956116
0.950623
0.944519
0.939026
0.934448
0.92804
0.922852
0.916443
0.91095
0.905457
0.899963
0.89386
0.888672
0.882568
0.877075
0.870972
0.865173
0.859375
0.854492
0.847778
0.84198
0.836182
0.829773
0.823364
0.817566
0.811462
0.804749
0.798645
0.793152
0.786438
0.780334
0.773926
0.768433
0.762939
0.756226
0.750122
0.744019
0.737915
0.731506
0.726318
0.71991
0.714722
0.708008
0.702209
0.697327
0.690308
0.685425
0.679932
0.674438
0.66864
0.662537
0.657349
0.653076
0.647583
0.643005
0.637512
0.632935
0.628662
0.623779
0.620422
0.61554
0.611267
0.608215
0.602722
0.59906
0.595703
0.591736
0.588074
0.584717
0.58197
0.578613
0.575562
0.572815
0.570068
0.567627
0.565186
0.562439
0.560608
0.558167
0.557251
0.55481
0.553284
0.551147
0.549011
0.548401
0.54718
0.545959
0.545044
0.543518
0.543213
0.541992
0.541077
0.540466
0.539551
0.539246
0.539551
0.53833
0.538635
0.539246
0.53833
0.538635
0.53894
0.539551
0.539246
0.539246
0.539856
0.540771
0.541077
0.541382
0.542603
0.542297
0.543823
0.544128
0.545654
0.546265
0.546875
0.54718
0.549011
0.549011
0.550842
0.552368
0.553589
0.554199
0.555115
0.55603
0.557861
0.559082
0.559998
0.560913
0.562439
0.56366
0.564575
0.565186
0.566101
0.567322
0.569153
0.570068
0.570374
0.571289
0.572205
0.57373
0.574036
0.574036
0.575562
0.575562
0.576477
0.577087
0.577698
0.578308
0.578308
0.578613
0.578003
0.579529
0.579529
0.578613
0.579529
0.578613
0.578613
0.578613
0.578918
0.578308
0.578003
0.577087
0.577393
0.576477
0.574951
0.575562
0.57373
0.57373
0.57312
0.571594
0.570679
0.569763
0.567932
0.566101
0.564575
0.56366
0.562439
0.560608
0.559082
0.558167
0.55542
0.553894
0.551758
0.549927
0.54718
0.545349
0.543213
0.540771
0.538025
0.535583
0.533447
0.531311
0.52887
0.526123
0.523376
0.521851
0.517883
0.516052
0.514221
0.511169
0.507507
0.504761
0.502014
0.499878
0.497131
0.494385
0.491028
0.488892
0.485535
0.482483
0.479736
0.47699
0.474548
0.470886
0.46875
0.466309
0.462036
0.459595
0.456543
0.454102
0.450134
0.447693
0.444946
0.441284
0.437927
0.434875
0.432434
0.429688
0.426331
0.422974
0.419006
0.41687
0.414124
0.411072
0.407104
0.404358
0.401306
0.398254
0.395508
0.392151
0.389709
0.386963
0.384216
0.380554
0.378723
0.375977
0.372925
0.369873
0.367126
0.364075
0.361328
0.358887
0.35553
0.354309
0.350647
0.3479
0.345764
0.343018
0.341492
0.338745
0.335999
0.334473
0.331421
0.32959
0.326843
0.324097
0.322266
0.319824
0.317383
0.314636
0.313416
0.310974
0.308838
0.306702
0.304871
0.30304
0.300293
0.296936
0.295715
0.294189
0.291138
0.289612
0.286865
0.285034
0.282898
0.280457
0.278931
0.276184
0.274963
0.272827
0.270386
0.26886
0.266724
0.264893
0.263367
0.262146
0.260315
0.257874
0.255432
0.253906
0.252686
0.250244
0.249023
0.247192
0.245667
0.243225
0.241699
0.240479
0.238342
0.237122
0.235291
0.233154
0.231628
0.230713
0.229187
0.227356
0.22644
0.22522
0.223389
0.222168
0.219727
0.219727
0.218201
0.21637
0.214539
0.213623
0.211792
0.209961
0.209351
0.208435
0.20752
0.205688
0.204468
0.203552
0.202332
0.201111
0.200195
0.198669
0.197449
0.196533
0.195312
0.193787
0.192871
0.19165
0.190735
0.189209
0.189209
0.187378
0.186768
0.185852
0.184021
0.184326
0.183105
0.18219
0.181885
0.180969
0.180664
0.180054
0.178833
0.178528
0.177917
0.177612
0.176392
0.176392
0.176086
0.174866
0.174255
0.173645
0.17334
0.172424
0.172424
0.171814
0.172424
0.170898
0.170593
0.170593
0.170898
0.169678
0.169983
0.169983
0.169067
0.169678
0.168762
0.168762
0.168457
0.168457
0.167236
0.167847
0.167542
0.167236
0.167847
0.167847
0.167847
0.167847
0.168457
0.168152
0.168457
0.168762
0.168457
0.169067
0.169067
0.169373
0.169983
0.169678
0.170593
0.170593
0.170898
0.171204
0.171204
0.171814
0.172119
0.172424
0.172729
0.172424
0.173645
0.173645
0.17395
0.17395
0.175476
0.175781
0.176697
0.176086
0.177307
0.178223
0.177002
0.178223
0.177917
0.179138
0.179749
0.180664
0.180664
0.181274
0.18219
0.182495
0.1828
0.183411
0.183716
0.184937
0.185547
0.185547
0.186768
0.186768
0.187683
0.188293
0.188293
0.188904
0.189514
0.19043
0.190735
0.19104
0.19165
0.192871
0.193481
0.194397
0.194702
0.195312
0.196228
0.197144
0.197754
0.198364
0.198975
0.198669
0.19989
0.200195
0.201111
0.200806
0.202026
0.202637
0.203247
0.203552
0.203247
0.204468
0.204773
0.205383
0.206299
0.207214
0.206604
0.206909
0.20874
0.20813
0.209045
0.209045
0.209351
0.210266
0.210876
0.210266
0.210876
0.211182
0.210876
0.212097
0.211792
0.212708
0.213013
0.213318
0.214233
0.213623
0.213928
0.214539
0.213928
0.215454
0.215759
0.215759
0.215759
0.21637
0.21637
0.217285
0.21698
0.21698
0.217285
0.217285
0.217896
0.217896
0.218201
0.217896
0.218811
0.218811
0.220032
0.219727
0.220032
0.220337
0.219727
0.220337
0.220642
0.221252
0.220642
0.220642
0.220947
0.220337
0.220337
0.220032
0.219116
0.219727
0.219116
0.219727
0.219727
0.218811
0.218506
0.218201
0.218201
0.218506
0.217896
0.21759
0.217285
0.216675
0.216675
0.215759
0.215759
0.215149
0.214844
0.213928
0.214233
0.213928
0.213318
0.213318
0.212708
0.212708
0.212097
0.211792
0.212097
0.210876
0.211792
0.211487
0.211487
0.209961
0.209961
0.209961
0.209961
0.209351
0.209656
0.209351
0.209351
0.20874
0.208435
0.208435
0.20813
0.209045
0.20874
0.20813
0.208435
0.209351
0.209045
0.209045
0.20874
0.209351
0.209045
0.208435
0.209045
0.209351
0.209961
0.209961
0.210266
0.209351
0.210266
0.211487
0.210876
0.211792
0.212402
0.212708
0.213623
0.215149
0.216064
0.21637
0.217285
0.218201
0.219421
0.220642
0.221863
0.223083
0.224609
0.22644
0.227966
0.230408
0.232849
0.234985
0.237122
0.239868
0.24292
0.245972
0.249329
0.252991
0.256348
0.260925
0.265503
0.269165
0.274353
0.279541
0.285339
0.291138
0.298157
0.30365
0.311279
0.318909
0.326538
0.333862
0.342407
0.350952
0.359497
0.368958
0.379028
0.388794
0.399475
0.410461
0.421448
0.432434
0.444946
0.455933
0.469055
0.481567
0.49469
0.507812
0.52063
0.534363
0.548401
0.562439
0.577698
0.592041
0.606689
0.621338
0.635986
0.65094
0.666809
0.682678
0.697632
0.713196
0.729065
0.744934
0.760803
0.775757
0.793152
0.8078
0.822449
0.839844
0.854797
0.870972
0.886536
0.9021
0.917358
0.932312
0.948792
0.96344
0.978394
0.992737
1.00769
1.02142
1.03607
1.05011
1.06323
1.07727
1.09009
1.10352
1.11603
1.12915
1.14136
1.15326
1.16486
1.17615
1.18744
1.19812
1.20911
1.21948
1.22986
1.23993
1.24847
1.25732
1.26587
1.27502
1.28265
1.29089
1.29822
1.30554
1.31195
1.31805
1.32477
1.33026
1.33575
1.34094
1.34735
1.35162
1.3559
1.35895
1.36322
1.36658
1.36963
1.37207
1.3739
1.37634
1.37817
1.37939
1.38031
1.38153
1.38245
1.38214
1.38275
1.38214
1.38214
1.38153
1.38
1.37909
1.37787
1.37634
1.37421
1.37238
1.36963
1.36749
1.36414
1.36139
1.35773
1.35529
1.35223
1.34827
1.34491
1.34155
1.33698
1.33301
1.32904
1.32385
1.31958
1.31561
1.31134
1.30646
1.30157
1.297
1.2915
1.28632
1.28143
1.27686
1.27075
1.26495
1.26068
1.25549
1.24908
1.24329
1.2384
1.23291
1.2265
1.22131
1.2149
1.2088
1.203
1.1972
1.19171
1.1853
1.1792
1.17371
1.16669
1.16119
1.15448
1.14807
1.14288
1.13647
1.13068
1.12457
1.11908
1.11267
1.10687
1.10199
1.09528
1.09009
1.08429
1.07788
1.07208
1.06659
1.06049
1.05469
1.04889
1.04279
1.03699
1.03119
1.02631
1.01898
1.01318
1.00769
1.00189
0.996399
0.98999
0.983887
0.978699
0.973511
0.967407
0.961914
0.955505
0.949707
0.943909
0.9375
0.932007
0.926208
0.920105
0.914917
0.908813
0.902405
0.896301
0.891113
0.884705
0.879211
0.872803
0.866699
0.860291
0.854492
0.848083
0.84198
0.835876
0.830078
0.823669
0.816956
0.810852
0.805054
0.798645
0.792847
0.786438
0.78064
0.774841
0.768738
0.762329
0.756531
0.750732
0.744629
0.738831
0.733337
0.727539
0.722351
0.716553
0.710754
0.705566
0.699768
0.695496
0.689697
0.684814
0.680237
0.674744
0.670166
0.664978
0.661011
0.656128
0.652161
0.648193
0.644226
0.638733
0.635681
0.632324
0.628357
0.625
0.621948
0.617981
0.614624
0.611877
0.608826
0.606384
0.603943
0.601196
0.599365
0.596619
0.594482
0.592957
0.591736
0.589905
0.587463
0.587158
0.585327
0.584412
0.583496
0.582581
0.581665
0.581055
0.579834
0.579529
0.579834
0.579224
0.579224
0.578308
0.578918
0.578918
0.579529
0.579224
0.579529
0.579529
0.580139
0.58136
0.581665
0.58197
0.583191
0.583801
0.584717
0.585022
0.587463
0.587158
0.588074
0.59021
0.591431
0.593262
0.594177
0.595398
0.596924
0.598755
0.59967
0.601501
0.603943
0.604858
0.606995
0.608215
0.610352
0.612183
0.614014
0.61554
0.617065
0.618591
0.620422
0.622253
0.623779
0.62439
0.626831
0.627747
0.629272
0.631409
0.632629
0.63385
0.635986
0.637512
0.639648
0.640564
0.641785
0.6427
0.643921
0.645142
0.645752
0.647278
0.648193
0.648499
0.649414
0.650635
0.650635
0.651245
0.651245
0.652161
0.652466
0.652771
0.652771
0.652161
0.652466
0.652466
0.651245
0.652466
0.652161
0.65155
0.651245
0.65033
0.649719
0.648804
0.648193
0.647583
0.646362
0.644531
0.644531
0.643921
0.642395
0.640564
0.639954
0.638123
0.637207
0.635071
0.63385
0.631104
0.630493
0.628662
0.626526
0.625305
0.622864
0.621338
0.618286
0.617065
0.614319
0.612793
0.610352
0.608215
0.606079
0.603333
0.600891
0.59906
0.596313
0.593262
0.591125
0.588684
0.586548
0.583801
0.58136
0.578003
0.575562
0.57251
0.570068
0.567627
0.564575
0.561218
0.558777
0.55603
0.553589
0.550232
0.547485
0.544434
0.541687
0.539246
0.535583
0.532532
0.530396
0.527039
0.524292
0.520935
0.518799
0.514832
0.512695
0.508728
0.506287
0.50293
0.501099
0.498047
0.49408
0.491638
0.488892
0.485535
0.483398
0.480042
0.477295
0.474243
0.472107
0.468445
0.466003
0.462646
0.460205
0.457153
0.455017
0.451355
0.448608
0.445557
0.443115
0.439758
0.436401
0.434875
0.433044
0.429077
0.427246
0.4245
0.421753
0.419922
0.41687
0.413818
0.411987
0.409241
0.406494
0.403748
0.401611
0.398865
0.396423
0.394592
0.392456
0.390625
0.388184
0.386963
0.384216
0.381775
0.379944
0.378113
0.375671
0.37384
0.37262
0.370178
0.367737
0.365295
0.363464
0.361633
0.359192
0.357666
0.35553
0.353088
0.351868
0.349426
0.3479
0.345764
0.343933
0.342102
0.340271
0.338135
0.336304
0.334473
0.332336
0.330811
0.328979
0.326538
0.324707
0.323181
0.32135
0.320129
0.317688
0.316467
0.315247
0.313416
0.31189
0.309448
0.307312
0.307007
0.304871
0.303955
0.302124
0.300598
0.299072
0.298157
0.295715
0.293884
0.293274
0.291748
0.290222
0.289001
0.28717
0.285645
0.284119
0.283203
0.281677
0.281982
0.279846
0.27832
0.2771
0.274963
0.274658
0.273743
0.271606
0.270691
0.269775
0.26886
0.267639
0.266724
0.265503
0.264587
0.263977
0.262451
0.261536
0.261841
0.260925
0.26001
0.259094
0.258179
0.257263
0.256958
0.256348
0.255737
0.254822
0.253906
0.253906
0.252686
0.252686
0.252686
0.251465
0.249939
0.250549
0.249634
0.249023
0.248413
0.248108
0.247803
0.247803
0.246887
0.247498
0.246887
0.246277
0.246887
0.246887
0.246582
0.246277
0.245667
0.245667
0.245361
0.246277
0.245667
0.245361
0.245361
0.245361
0.245361
0.245361
0.245056
0.245972
0.245667
0.245972
0.246277
0.246582
0.246582
0.246277
0.246277
0.246887
0.246887
0.247498
0.247192
0.247192
0.247803
0.248108
0.247803
0.248413
0.248718
0.248108
0.249023
0.249023
0.249634
0.249634
0.249939
0.250854
0.25116
0.250854
0.251465
0.25116
0.252686
0.252075
0.252991
0.252686
0.252991
0.253296
0.253906
0.254211
0.254211
0.255432
0.254822
0.255432
0.255737
0.256042
0.256653
0.256958
0.256958
0.257263
0.257874
0.258789
0.257874
0.257874
0.259094
0.26001
0.260315
0.26062
0.26123
0.26123
0.262146
0.262451
0.262451
0.263062
0.263977
0.263977
0.264587
0.264587
0.265503
0.265198
0.265198
0.265503
0.266113
0.266418
0.266418
0.267029
0.267029
0.267639
0.268555
0.267639
0.26886
0.269165
0.26947
0.270081
0.270386
0.271301
0.270996
0.272217
0.271912
0.272522
0.272217
0.272827
0.273438
0.273132
0.274353
0.274353
0.274353
0.274963
0.274658
0.275879
0.276489
0.276489
0.2771
0.276794
0.277405
0.278015
0.277405
0.278015
0.278015
0.278625
0.27832
0.278625
0.278625
0.278625
0.278931
0.27832
0.278625
0.278015
0.27832
0.27771
0.27832
0.277405
0.277405
0.276794
0.276489
0.276794
0.275574
0.275879
0.274658
0.274048
0.273438
0.273438
0.272827
0.271912
0.271606
0.270691
0.270996
0.270691
0.270081
0.269775
0.26947
0.269165
0.26886
0.26886
0.267944
0.267334
0.266724
0.267334
0.266724
0.266113
0.265503
0.265198
0.265198
0.264587
0.264282
0.264282
0.263062
0.263062
0.263062
0.262146
0.262146
0.262146
0.261841
0.262146
0.26123
0.26123
0.260925
0.260925
0.260925
0.26062
0.260925
0.260315
0.26001
0.26001
0.26001
0.260925
0.260925
0.260925
0.261841
0.261536
0.261841
0.262756
0.262756
0.263977
0.265198
0.265808
0.266418
0.26825
0.270081
0.270996
0.272217
0.274048
0.275879
0.27771
0.280151
0.282288
0.285034
0.28656
0.290527
0.293274
0.296631
0.300293
0.304871
0.308228
0.3125
0.317078
0.322266
0.327454
0.332947
0.338745
0.344238
0.350342
0.358276
0.365295
0.372314
0.380249
0.387573
0.396423
0.405273
0.414429
0.423584
0.433655
0.443726
0.453796
0.464172
0.475464
0.48584
0.497742
0.509338
0.520935
0.532532
0.545044
0.557861
0.570068
0.582886
0.596619
0.609131
0.622864
0.635986
0.65094
0.663452
0.677795
0.691833
0.706787
0.72113
0.735779
0.749817
0.764771
0.778809
0.793152
0.80719
0.822449
0.836792
0.85083
0.864868
0.879517
0.893555
0.907898
0.922241
0.935974
0.949707
0.963745
0.977478
0.98999
1.00372
1.01654
1.02966
1.04248
1.05469
1.06689
1.07971
1.09131
1.10291
1.11359
1.12457
1.13495
1.14532
1.15631
1.16608
1.17584
1.18561
1.19354
1.20331
1.21185
1.21948
1.22803
1.23596
1.24298
1.24969
1.2558
1.26221
1.2677
1.27502
1.2796
1.28479
1.28876
1.29456
1.29913
1.30249
1.30585
1.30951
1.31287
1.315
1.31744
1.31958
1.32202
1.32233
1.32446
1.32507
1.32538
1.32599
1.3266
1.32629
1.32599
1.32507
1.32477
1.32355
1.32263
1.3205
1.31989
1.31744
1.31561
1.31348
1.31104
1.30859
1.30585
1.30341
1.30005
1.297
1.29425
1.28967
1.28632
1.28265
1.2793
1.27502
1.27075
1.26709
1.26251
1.25793
1.25488
1.24908
1.2442
1.23962
1.23505
1.23077
1.22589
1.2207
1.21521
1.21033
1.20483
1.19965
1.19415
1.18866
1.18378
1.17798
1.17218
1.16699
1.16058
1.15509
1.1496
1.1438
1.13831
1.13312
1.1261
1.12061
1.11481
1.10992
1.10352
1.09711
1.09131
1.08551
1.08063
1.07361
1.0672
1.06171
1.05591
1.0498
1.04309
1.0376
1.03119
1.026
1.01929
1.0141
1.00739
1.00159
0.994873
0.989075
0.983582
0.977783
0.971069
0.964966
0.959167
0.952759
0.946655
0.940552
0.933533
0.927734
0.921936
0.915527
0.909424
0.903015
0.897217
0.889893
0.88501
0.878296
0.871582
0.865479
0.85968
0.853271
0.846558
0.840454
0.834045
0.827332
0.821228
0.814819
0.808716
0.803223
0.795898
0.7901
0.783997
0.779114
0.77179
0.766602
0.760803
0.754089
0.747681
0.742188
0.735474
0.72998
0.724487
0.717773
0.712891
0.706482
0.700684
0.695496
0.689697
0.683899
0.678711
0.673218
0.66803
0.662842
0.657349
0.652771
0.648193
0.6427
0.638123
0.63446
0.629272
0.624695
0.620728
0.616455
0.613403
0.608521
0.604858
0.602112
0.597534
0.595093
0.591125
0.588074
0.585938
0.583191
0.579834
0.578003
0.574646
0.574036
0.571289
0.569153
0.567627
0.565491
0.56427
0.562744
0.560608
0.559998
0.558472
0.557251
0.556641
0.555725
0.55481
0.55481
0.554504
0.553894
0.553589
0.553284
0.553894
0.554199
0.554504
0.554504
0.554504
0.555115
0.556335
0.556946
0.556641
0.558167
0.558777
0.559692
0.560913
0.561829
0.562744
0.563965
0.565186
0.566406
0.567932
0.567627
0.570068
0.571594
0.572815
0.574646
0.576172
0.577087
0.579224
0.581055
0.582275
0.584106
0.585938
0.587158
0.589294
0.59082
0.592651
0.594177
0.595703
0.597534
0.598755
0.59967
0.601807
0.603333
0.604858
0.606995
0.608215
0.609436
0.610657
0.612183
0.614014
0.614624
0.616455
0.617371
0.617981
0.619202
0.620117
0.621643
0.622559
0.622864
0.622864
0.624695
0.624695
0.625916
0.626831
0.627136
0.627136
0.628052
0.628052
0.628052
0.627747
0.627747
0.628357
0.627441
0.627747
0.627136
0.627136
0.627136
0.62561
0.625916
0.625305
0.625305
0.624695
0.623474
0.622864
0.622253
0.621948
0.621338
0.619202
0.618896
0.617065
0.615845
0.615234
0.614319
0.611572
0.610352
0.609741
0.608215
0.606384
0.603943
0.602112
0.601196
0.598755
0.597229
0.596008
0.593872
0.591736
0.589905
0.587463
0.585632
0.582886
0.581665
0.578918
0.577087
0.574646
0.572205
0.569763
0.567932
0.565186
0.562439
0.560608
0.557861
0.55481
0.552673
0.550232
0.547791
0.545654
0.541992
0.540161
0.537415
0.534363
0.531311
0.52887
0.525208
0.523071
0.52002
0.517273
0.514832
0.511169
0.509644
0.505676
0.503845
0.500488
0.497742
0.494995
0.492249
0.489502
0.486145
0.484009
0.480652
0.477295
0.475159
0.472107
0.469971
0.466614
0.463867
0.461121
0.458069
0.455627
0.452881
0.449829
0.447083
0.444641
0.441895
0.439758
0.437622
0.435181
0.432129
0.429993
0.426941
0.424805
0.421753
0.420227
0.417786
0.415649
0.413208
0.411377
0.408325
0.406494
0.404053
0.402527
0.39978
0.397339
0.396118
0.393982
0.391541
0.389099
0.386963
0.385742
0.382996
0.381165
0.378723
0.377197
0.374756
0.37384
0.370483
0.369263
0.367432
0.36499
0.362854
0.360718
0.359497
0.357361
0.354919
0.353699
0.350952
0.349731
0.347595
0.345459
0.343323
0.342102
0.339661
0.337219
0.335388
0.333252
0.331421
0.32959
0.327759
0.325928
0.324097
0.322571
0.321045
0.319214
0.317383
0.315552
0.314331
0.312195
0.311279
0.308838
0.307312
0.305481
0.30426
0.302429
0.300598
0.299683
0.297546
0.295715
0.2948
0.292969
0.291138
0.289917
0.288391
0.286865
0.285645
0.283203
0.282593
0.281677
0.280457
0.27832
0.276794
0.275574
0.273132
0.272522
0.271301
0.270081
0.267944
0.266724
0.266113
0.264587
0.263367
0.262451
0.261536
0.259705
0.258789
0.257874
0.256348
0.255432
0.255127
0.253906
0.252991
0.25177
0.250549
0.249939
0.249023
0.248108
0.247498
0.246887
0.245667
0.245361
0.244446
0.244141
0.243835
0.242615
0.24231
0.241699
0.241394
0.240479
0.239563
0.239868
0.238342
0.238342
0.237732
0.237122
0.236816
0.236816
0.235291
0.235596
0.23468
0.23468
0.234985
0.23468
0.233765
0.233154
0.232849
0.233154
0.232239
0.231934
0.231934
0.231628
0.231323
0.231628
0.231934
0.230408
0.230713
0.230408
0.230408
0.230408
0.230408
0.231018
0.229797
0.229797
0.229797
0.230103
0.230713
0.230713
0.230713
0.231018
0.230408
0.231323
0.230713
0.231628
0.231018
0.231018
0.231018
0.231018
0.231018
0.230408
0.231018
0.230713
0.231323
0.231934
0.231628
0.232239
0.232544
0.232239
0.232239
0.231934
0.232544
0.233459
0.233459
0.232544
0.233154
0.233459
0.233154
0.23407
0.234375
0.235291
0.23468
0.234985
0.234985
0.235596
0.236206
0.235901
0.235901
0.236511
0.235901
0.237122
0.237427
0.237732
0.238037
0.238037
0.237427
0.238342
0.238342
0.239258
0.239258
0.240479
0.239563
0.240479
0.241089
0.240784
0.240784
0.241394
0.241699
0.242615
0.242615
0.242615
0.24292
0.243835
0.244751
0.244446
0.244446
0.244751
0.245056
0.245361
0.245361
0.245667
0.245972
0.246887
0.246582
0.246582
0.246582
0.247803
0.248108
0.248413
0.248718
0.249634
0.249023
0.249634
0.249939
0.249634
0.250549
0.250244
0.250244
0.250854
0.250549
0.250549
0.250549
0.251465
0.250549
0.25116
0.25116
0.251465
0.25116
0.25116
0.25177
0.25116
0.250854
0.25116
0.251465
0.251465
0.251465
0.250854
0.250854
0.250854
0.250854
0.25116
0.251465
0.25116
0.25116
0.250854
0.25116
0.250549
0.251465
0.250244
0.250854
0.25116
0.250854
0.250854
0.25116
0.250549
0.25116
0.25116
0.251465
0.251465
0.251465
0.251465
0.25177
0.25177
0.252075
0.25238
0.25238
0.252991
0.253906
0.253906
0.253601
0.254211
0.254517
0.255432
0.256348
0.256348
0.257263
0.258179
0.259094
0.259705
0.260315
0.261841
0.262756
0.264282
0.265808
0.267029
0.26886
0.271606
0.273438
0.276489
0.278625
0.280457
0.283813
0.28717
0.289612
0.294189
0.297852
0.301819
0.305786
0.310974
0.315552
0.321045
0.325928
0.332642
0.33844
0.345459
0.353088
0.360107
0.367737
0.375671
0.384521
0.393066
0.401917
0.411377
0.420837
0.431824
0.441284
0.452271
0.464172
0.475464
0.487061
0.499878
0.512085
0.525208
0.53833
0.551758
0.566101
0.579529
0.593872
0.608215
0.623779
0.638123
0.653687
0.668945
0.684814
0.699463
0.714722
0.730896
0.746765
0.76355
0.779114
0.794678
0.810852
0.827332
0.843201
0.859375
0.87616
0.892639
0.908813
0.924377
0.939941
0.956116
0.97229
0.987244
1.0025
1.01868
1.03333
1.04919
1.06354
1.07849
1.09253
1.10687
1.12122
1.13525
1.14838
1.16241
1.17523
1.18774
1.20087
1.21399
1.22589
1.23779
1.24878
1.25946
1.27045
1.28113
1.2915
1.30188
1.31104
1.3205
1.32965
1.33759
1.34583
1.35468
1.3623
1.37024
1.37665
1.38458
1.39038
1.39679
1.40289
1.40808
1.41327
1.41815
1.42273
1.42639
1.43036
1.43433
1.43646
1.43982
1.44226
1.4444
1.44623
1.44775
1.44897
1.4502
1.45081
1.45081
1.45172
1.45111
1.45081
1.4505
1.44928
1.44836
1.44653
1.44562
1.44318
1.44104
1.4386
1.43646
1.43402
1.43127
1.42822
1.42456
1.42151
1.41846
1.41479
1.41052
1.40656
1.40198
1.39801
1.39404
1.38885
1.38458
1.38
1.37482
1.36993
1.36475
1.35986
1.35345
1.34796
1.34277
1.33698
1.33118
1.32568
1.32019
1.31439
1.30768
1.30096
1.29547
1.28845
1.28296
1.27625
1.27014
1.26434
1.25732
1.25153
1.2439
1.23871
1.23169
1.22559
1.21918
1.21277
1.20605
1.20087
1.19354
1.18774
1.18164
1.17523
1.16913
1.16241
1.15631
1.1499
1.1438
1.13678
1.13037
1.12396
1.11816
1.11115
1.10443
1.09863
1.09253
1.08612
1.07971
1.07422
1.0675
1.0614
1.05499
1.04919
1.04218
1.03607
1.02966
1.02386
1.01715
1.01105
1.00464
0.99884
0.993042
0.986938
0.98053
0.973816
0.968018
0.962219
0.956116
0.950317
0.943604
0.937195
0.931702
0.924988
0.9198
0.913086
0.906677
0.900574
0.892944
0.886536
0.880737
0.873718
0.866699
0.859375
0.853882
0.846863
0.840149
0.83313
0.827026
0.819397
0.812988
0.806885
0.800171
0.793762
0.787048
0.78064
0.773926
0.766907
0.761108
0.754395
0.748596
0.741577
0.734863
0.72937
0.722961
0.716248
0.710754
0.704346
0.699158
0.69397
0.687866
0.682678
0.676575
0.671997
0.666199
0.661316
0.656433
0.65094
0.645752
0.640564
0.635986
0.631714
0.627136
0.623474
0.619507
0.61554
0.611877
0.60791
0.603027
0.600891
0.596924
0.594482
0.59082
0.588379
0.585938
0.582886
0.580444
0.578308
0.575867
0.574036
0.570984
0.569763
0.567627
0.566711
0.565796
0.56427
0.561829
0.561523
0.561218
0.559692
0.558777
0.558472
0.558472
0.557251
0.557251
0.556641
0.556641
0.55603
0.55603
0.55603
0.555725
0.55542
0.556946
0.556946
0.556946
0.557556
0.558472
0.558777
0.559082
0.560303
0.561523
0.562134
0.562134
0.563049
0.56427
0.565186
0.565186
0.566711
0.567932
0.568848
0.569763
0.570984
0.571594
0.572815
0.574646
0.575562
0.575867
0.578003
0.578308
0.580139
0.581665
0.58197
0.583496
0.584717
0.585327
0.587158
0.588074
0.588379
0.589905
0.59021
0.591431
0.592957
0.593262
0.593567
0.594482
0.595398
0.596008
0.596924
0.596924
0.597839
0.59845
0.598755
0.599365
0.59906
0.599976
0.600586
0.600586
0.600586
0.600281
0.59967
0.59967
0.59967
0.59967
0.598755
0.597839
0.597534
0.596619
0.595398
0.594788
0.594177
0.592957
0.592041
0.590515
0.589905
0.588684
0.586853
0.585938
0.584412
0.582581
0.58136
0.579224
0.577087
0.575256
0.57373
0.570679
0.569763
0.567627
0.566101
0.563049
0.560913
0.559082
0.556641
0.554504
0.552063
0.549011
0.546875
0.543518
0.541382
0.538635
0.536194
0.533142
0.530701
0.527954
0.524902
0.522156
