0.357666
0.357666
0.358276
0.358582
0.359497
0.360718
0.361328
0.362244
0.36377
0.36438
0.365295
0.366211
0.368347
0.369873
0.371399
0.37262
0.374756
0.376282
0.379028
0.38147
0.383606
0.387268
0.390625
0.393066
0.397644
0.400696
0.405579
0.410156
0.414734
0.420532
0.42511
0.431213
0.436707
0.443726
0.449829
0.456543
0.463257
0.470581
0.47821
0.485535
0.493469
0.502014
0.509949
0.517578
0.527344
0.534973
0.544128
0.553284
0.562439
0.570984
0.579529
0.588684
0.597839
0.606995
0.615845
0.624084
0.632935
0.641479
0.650024
0.657959
0.666809
0.675049
0.682983
0.691223
0.698547
0.706787
0.714417
0.721436
0.729065
0.735779
0.743103
0.750427
0.756226
0.76355
0.769653
0.776062
0.782166
0.788269
0.793457
0.79895
0.805359
0.811462
0.81604
0.820923
0.826721
0.831299
0.836182
0.840149
0.845337
0.849609
0.853882
0.856934
0.861206
0.865479
0.86853
0.871887
0.875244
0.878601
0.881653
0.884094
0.887146
0.889893
0.892334
0.895081
0.898438
0.899658
0.90271
0.904236
0.907288
0.909119
0.910339
0.91217
0.914307
0.915833
0.917053
0.919495
0.921021
0.921936
0.923462
0.924683
0.925293
0.926208
0.927429
0.92804
0.92926
0.929565
0.930481
0.930176
0.932312
0.932922
0.933838
0.933838
0.933838
0.935364
0.935364
0.936584
0.93689
0.93689
0.93689
0.937805
0.937805
0.938416
0.939026
0.938721
0.939026
0.939331
0.939941
0.940247
0.940552
0.940857
0.941162
0.941467
0.941162
0.941772
0.942688
0.942993
0.943909
0.943298
0.943604
0.944519
0.944519
0.944214
0.944519
0.944519
0.94574
0.94574
0.94574
0.946045
0.946655
0.94696
0.947571
0.947571
0.947876
0.948792
0.948181
0.948792
0.948792
0.948792
0.948486
0.948486
0.948181
0.948486
0.949097
0.948486
0.948792
0.949097
0.948792
0.949097
0.949097
0.949097
0.948792
0.949097
0.949402
0.949097
0.948792
0.948486
0.948181
0.948181
0.948181
0.947571
0.948181
0.948181
0.947571
0.947876
0.94696
0.947571
0.946655
0.94635
0.947266
0.946655
0.94635
0.94635
0.94574
0.946045
0.94574
0.94574
0.945435
0.944214
0.944519
0.944214
0.943909
0.942993
0.943909
0.942688
0.943298
0.942383
0.942383
0.941772
0.941162
0.940857
0.940247
0.939636
0.939331
0.938721
0.938721
0.93689
0.937195
0.936584
0.935059
0.935059
0.934753
0.933533
0.932922
0.931702
0.931091
0.930176
0.929871
0.928955
0.927734
0.926514
0.926208
0.925293
0.923767
0.922852
0.921936
0.92041
0.919495
0.917969
0.916748
0.916748
0.914307
0.912476
0.91156
0.910034
0.908813
0.907288
0.906067
0.905457
0.903015
0.901184
0.899963
0.898132
0.897217
0.894775
0.893555
0.892029
0.889893
0.888062
0.885315
0.882874
0.881653
0.879822
0.877686
0.875549
0.874023
0.872192
0.870056
0.868225
0.866089
0.863647
0.861816
0.85907
0.857239
0.855713
0.853577
0.851135
0.849609
0.847168
0.845032
0.842896
0.841064
0.838928
0.836182
0.834961
0.83252
0.830078
0.828247
0.826416
0.823669
0.822144
0.820312
0.818176
0.816345
0.814514
0.812988
0.811768
0.809631
0.806885
0.805664
0.804138
0.802307
0.799866
0.798035
0.796814
0.794983
0.794067
0.791016
0.7901
0.787659
0.786438
0.784912
0.783691
0.782166
0.780945
0.779724
0.778809
0.776978
0.775146
0.773621
0.77179
0.770569
0.769653
0.769043
0.767212
0.765991
0.764771
0.76355
0.762329
0.761108
0.759583
0.758667
0.757751
0.756226
0.75531
0.754395
0.753174
0.751953
0.751038
0.750122
0.748901
0.747375
0.74707
0.74646
0.745239
0.743713
0.742493
0.742188
0.740967
0.739746
0.739136
0.73822
0.737
0.736389
0.735168
0.734253
0.732727
0.731506
0.731506
0.730591
0.72876
0.728149
0.726624
0.726318
0.725098
0.724182
0.723267
0.722046
0.721436
0.720215
0.718994
0.718384
0.716553
0.715637
0.715332
0.713806
0.71167
0.71167
0.710449
0.708618
0.707703
0.706482
0.705566
0.704346
0.703125
0.701599
0.700378
0.699463
0.698242
0.696716
0.695496
0.69458
0.693054
0.691528
0.689392
0.688782
0.687866
0.68573
0.684814
0.682373
0.681152
0.679626
0.677795
0.67749
0.675354
0.674438
0.671997
0.670776
0.668335
0.66803
0.666809
0.664673
0.662842
0.661926
0.660706
0.658875
0.657349
0.654907
0.654297
0.652161
0.65094
0.648804
0.647278
0.646362
0.643921
0.64209
0.640869
0.639954
0.637817
0.635376
0.634155
0.632935
0.631104
0.628967
0.628052
0.626221
0.624695
0.622559
0.620728
0.618896
0.61676
0.614929
0.613098
0.611572
0.610046
0.608215
0.606384
0.604248
0.603333
0.600891
0.600281
0.598145
0.596619
0.594482
0.592346
0.590515
0.588989
0.587158
0.585327
0.583191
0.58197
0.579529
0.577698
0.576172
0.574646
0.571899
0.570984
0.569763
0.567322
0.565491
0.56427
0.561829
0.560608
0.558472
0.557556
0.555115
0.553284
0.551453
0.549622
0.547791
0.545654
0.544434
0.542603
0.540161
0.53833
0.537109
0.535278
0.533142
0.531616
0.530396
0.527649
0.526733
0.525208
0.523071
0.521545
0.519714
0.517578
0.516357
0.514832
0.512085
0.511169
0.510254
0.508118
0.506287
0.504456
0.502625
0.501099
0.499573
0.498047
0.496521
0.494995
0.493774
0.491943
0.490112
0.489197
0.487061
0.485229
0.483704
0.482178
0.480652
0.478516
0.477295
0.475159
0.474243
0.471497
0.470276
0.46875
0.467224
0.465698
0.464478
0.462952
0.461731
0.4599
0.457764
0.457458
0.455322
0.453491
0.452881
0.450745
0.449829
0.448608
0.447083
0.444336
0.44342
0.441589
0.441284
0.439453
0.438232
0.436401
0.434875
0.43335
0.432739
0.430908
0.429993
0.427856
0.426636
0.42511
0.423584
0.422974
0.420227
0.419922
0.419006
0.41748
0.415649
0.414429
0.413818
0.412292
0.411072
0.409851
0.40802
0.40741
0.407104
0.405884
0.404663
0.403137
0.402222
0.400696
0.400391
0.39856
0.397339
0.396118
0.394287
0.393372
0.392456
0.391541
0.390625
0.388794
0.388184
0.386963
0.385742
0.385132
0.383606
0.382996
0.38208
0.381165
0.380249
0.378723
0.377502
0.376282
0.375061
0.374451
0.37384
0.372314
0.370789
0.370483
0.369263
0.367737
0.367432
0.366211
0.364685
0.36438
0.363464
0.362549
0.361633
0.359497
0.358887
0.358276
0.35675
0.35614
0.353699
0.353699
0.352783
0.351562
0.350342
0.349426
0.348511
0.347595
0.345459
0.345154
0.344238
0.343323
0.343018
0.340881
0.340881
0.339661
0.33844
0.336914
0.336609
0.335083
0.335083
0.332947
0.332336
0.331421
0.3302
0.32959
0.328979
0.328369
0.327454
0.326843
0.325623
0.324707
0.324402
0.324097
0.323792
0.322876
0.32196
0.321655
0.32135
0.320435
0.318909
0.318604
0.317993
0.317078
0.316772
0.316162
0.315247
0.314636
0.313721
0.314026
0.312805
0.31189
0.311279
0.310364
0.310059
0.309448
0.308838
0.308228
0.307007
0.307312
0.306702
0.305481
0.305176
0.303955
0.30365
0.302429
0.301819
0.301208
0.300903
0.300293
0.300293
0.299072
0.299072
0.298767
0.298157
0.296936
0.296631
0.296326
0.29541
0.295105
0.294495
0.294189
0.293274
0.292358
0.292358
0.290527
0.291138
0.290222
0.290527
0.289917
0.289612
0.288086
0.288391
0.287781
0.28717
0.28595
0.28595
0.285645
0.284729
0.284119
0.283813
0.283203
0.282288
0.281677
0.281982
0.281372
0.281067
0.281372
0.280762
0.280151
0.280151
0.278625
0.278931
0.278015
0.27832
0.2771
0.276489
0.276794
0.275879
0.275574
0.274353
0.274963
0.274048
0.273438
0.272522
0.272522
0.272217
0.271301
0.270996
0.270996
0.270386
0.26947
0.269775
0.26947
0.26947
0.269165
0.26825
0.267639
0.267029
0.266724
0.266724
0.266113
0.266418
0.265503
0.265503
0.264587
0.265198
0.264587
0.264587
0.263977
0.264282
0.263977
0.263977
0.263367
0.263062
0.262756
0.262451
0.262146
0.261536
0.261841
0.26062
0.26123
0.26062
0.259705
0.259094
0.259399
0.258484
0.258789
0.258484
0.258179
0.258179
0.258484
0.258179
0.257568
0.257263
0.257568
0.256958
0.256958
0.256653
0.256042
0.256042
0.256042
0.255127
0.254822
0.255127
0.254517
0.254211
0.254211
0.254517
0.253906
0.253601
0.253296
0.253601
0.253906
0.253601
0.252991
0.252075
0.252686
0.25238
0.252075
0.25177
0.25238
0.25177
0.251465
0.25238
0.251465
0.25116
0.250854
0.25116
0.251465
0.25116
0.250549
0.250549
0.249939
0.250549
0.250854
0.249939
0.250244
0.250549
0.249939
0.249939
0.249329
0.249634
0.249329
0.249634
0.249634
0.249939
0.249329
0.249329
0.249634
0.249634
0.249939
0.249329
0.249939
0.249329
0.249939
0.249634
0.249023
0.249939
0.249329
0.249023
0.249023
0.249329
0.248718
0.249634
0.248718
0.249329
0.248413
0.249023
0.248718
0.248718
0.249329
0.248718
0.248413
0.249023
0.249634
0.249023
0.249329
0.249023
0.249634
0.249023
0.249939
0.249329
0.249634
0.249939
0.249939
0.249329
0.250244
0.250244
0.250244
0.25116
0.250549
0.250854
0.25116
0.25116
0.25177
0.25177
0.252686
0.252075
0.252686
0.252991
0.253296
0.252991
0.253906
0.254211
0.253601
0.252991
0.254517
0.253906
0.255432
0.255127
0.255432
0.255737
0.255432
0.256042
0.256958
0.256958
0.256958
0.256042
0.256348
0.256958
0.257263
0.257263
0.257263
0.257263
0.257874
0.257263
0.257263
0.257874
0.258179
0.258179
0.258484
0.258789
0.258484
0.258789
0.258789
0.258789
0.259094
0.26001
0.259094
0.260315
0.259094
0.26001
0.26001
0.260925
0.26001
0.26062
0.260925
0.26062
0.260925
0.261536
0.261841
0.262146
0.262756
0.262451
0.263062
0.263367
0.263672
0.263672
0.263977
0.264893
0.264587
0.264587
0.264893
0.265503
0.264893
0.265198
0.266113
0.266418
0.266724
0.267334
0.267334
0.267334
0.267944
0.267944
0.267944
0.26886
0.269165
0.26886
0.270386
0.270081
0.270081
0.270996
0.271606
0.272217
0.272217
0.272217
0.272827
0.273438
0.274048
0.274353
0.274963
0.275269
0.275574
0.275879
0.276489
0.277405
0.27771
0.278625
0.278625
0.279236
0.279236
0.280457
0.281677
0.281677
0.283203
0.283508
0.284729
0.28595
0.28656
0.28656
0.289001
0.289612
0.291138
0.292358
0.293274
0.294189
0.295715
0.296936
0.297852
0.299377
0.300598
0.302429
0.304565
0.306091
0.307922
0.310364
0.3125
0.314941
0.317993
0.320129
0.323181
0.327454
0.330505
0.335083
0.33905
0.343323
0.347595
0.352783
0.358276
0.363464
0.368958
0.374756
0.380554
0.387573
0.394287
0.401917
0.408325
0.416565
0.423279
0.431213
0.438843
0.447388
0.455322
0.464172
0.472107
0.480652
0.489502
0.497437
0.506592
0.515747
0.523376
0.532837
0.540771
0.549622
0.558777
0.567627
0.576477
0.584412
0.592957
0.601196
0.609131
0.617676
0.62561
0.63324
0.640869
0.649109
0.655823
0.663452
0.671082
0.678101
0.684814
0.691833
0.698547
0.704346
0.71106
0.717163
0.723267
0.72937
0.734558
0.740967
0.74585
0.751343
0.757141
0.762024
0.766296
0.770569
0.775146
0.780029
0.783997
0.788269
0.792236
0.795898
0.799561
0.803223
0.806885
0.809326
0.813599
0.816345
0.819397
0.822754
0.8255
0.827942
0.831299
0.83374
0.836487
0.838928
0.84137
0.843201
0.846252
0.848083
0.849915
0.852051
0.853271
0.854797
0.856323
0.858154
0.859985
0.861511
0.862732
0.864563
0.865479
0.867004
0.86792
0.86853
0.870056
0.871582
0.871887
0.872803
0.874023
0.874329
0.875244
0.874939
0.876465
0.877075
0.877686
0.877686
0.878906
0.879211
0.879822
0.880737
0.881042
0.881348
0.881958
0.881958
0.882874
0.883179
0.883789
0.884399
0.884399
0.884705
0.884705
0.884705
0.885315
0.885315
0.88562
0.88562
0.885925
0.885315
0.885925
0.88562
0.886536
0.88623
0.886841
0.886841
0.887146
0.886841
0.886536
0.886841
0.887146
0.887146
0.887146
0.887146
0.887451
0.887451
0.886536
0.887451
0.886841
0.888062
0.887451
0.886841
0.887146
0.887756
0.888062
0.887756
0.887451
0.887756
0.887756
0.887451
0.887451
0.887756
0.887756
0.887756
0.887451
0.887146
0.888367
0.887451
0.888062
0.887756
0.888367
0.888062
0.887451
0.887756
0.886841
0.887756
0.886841
0.886536
0.887146
0.886536
0.88623
0.886536
0.886536
0.886841
0.885925
0.88562
0.88562
0.885315
0.88562
0.885315
0.885315
0.88501
0.88501
0.884705
0.883789
0.884094
0.883789
0.883179
0.882874
0.882568
0.882874
0.881958
0.880432
0.880127
0.880127
0.879517
0.878601
0.878601
0.87738
0.877686
0.87677
0.875854
0.875244
0.874634
0.873413
0.872498
0.872192
0.870972
0.870056
0.86792
0.867615
0.866089
0.865479
0.863342
0.862732
0.861511
0.859985
0.85907
0.858459
0.856018
0.854492
0.853577
0.852356
0.851135
0.849609
0.848083
0.846558
0.843811
0.842896
0.840759
0.838623
0.836792
0.834961
0.83374
0.831299
0.829163
0.827942
0.825806
0.82428
0.821838
0.820312
0.817871
0.816345
0.813904
0.812073
0.809937
0.807495
0.806274
0.804443
0.802307
0.800171
0.798035
0.794983
0.793762
0.79071
0.78949
0.787964
0.785217
0.783691
0.781555
0.780029
0.777588
0.776672
0.774231
0.772095
0.770874
0.768738
0.766602
0.76416
0.763245
0.761108
0.758972
0.756531
0.755005
0.753479
0.752258
0.750427
0.748901
0.74646
0.74585
0.744324
0.742493
0.741577
0.740356
0.739136
0.737915
0.736694
0.735474
0.733948
0.734253
0.732117
0.731506
0.730286
0.72937
0.727539
0.726624
0.726318
0.725708
0.724487
0.723572
0.722656
0.721741
0.72113
0.71991
0.719604
0.718689
0.717468
0.716248
0.715942
0.715332
0.714722
0.713196
0.713196
0.711975
0.71106
0.710144
0.710754
0.709534
0.708313
0.707397
0.707092
0.706177
0.706177
0.704956
0.704651
0.70343
0.702515
0.701294
0.701294
0.700684
0.699463
0.698242
0.697327
0.697021
0.695801
0.695496
0.694275
0.693054
0.692749
0.691833
0.690613
0.690002
0.688782
0.688171
0.687256
0.686646
0.68573
0.684814
0.684204
0.682678
0.681763
0.681458
0.680542
0.678711
0.678101
0.67688
0.675964
0.674438
0.673218
0.672302
0.671692
0.671082
0.669556
0.66864
0.66803
0.666809
0.665588
0.664062
0.662842
0.662231
0.6604
0.65979
0.659485
0.657349
0.655823
0.655212
0.653687
0.651855
0.65094
0.650024
0.648499
0.646667
0.646057
0.644226
0.643311
0.64209
0.640564
0.639343
0.637512
0.635986
0.63446
0.632935
0.631409
0.630493
0.628967
0.627747
0.62561
0.623474
0.622864
0.621033
0.620117
0.618286
0.617676
0.61554
0.614319
0.612183
0.611877
0.610352
0.60791
0.606689
0.604553
0.604248
0.602722
0.600281
0.59906
0.596924
0.596008
0.594482
0.592957
0.590515
0.589294
0.587463
0.586548
0.585022
0.582886
0.58197
0.579529
0.578003
0.575867
0.574951
0.572815
0.570679
0.569763
0.567932
0.56488
0.563965
0.562744
0.560303
0.559082
0.556946
0.555725
0.553894
0.552368
0.550537
0.548706
0.546875
0.545349
0.543823
0.542297
0.540771
0.538635
0.537415
0.535278
0.533752
0.531921
0.530701
0.529175
0.527344
0.526123
0.523987
0.522766
0.520935
0.52002
0.517578
0.516357
0.514526
0.513306
0.51178
0.509949
0.506897
0.506287
0.504456
0.50293
0.501404
0.500183
0.498657
0.496826
0.494995
0.493774
0.492859
0.490723
0.489807
0.488281
0.48645
0.484619
0.484009
0.482178
0.480652
0.480042
0.4776
0.476074
0.474548
0.472717
0.471497
0.469971
0.46875
0.466309
0.466003
0.463867
0.462341
0.461426
0.459595
0.457458
0.456543
0.456238
0.453186
0.452881
0.45166
0.449829
0.448608
0.446777
0.446167
0.444336
0.44281
0.441589
0.440979
0.439758
0.437927
0.436707
0.435791
0.434265
0.43335
0.432434
0.431824
0.429993
0.429077
0.427856
0.426636
0.425415
0.424194
0.423279
0.421753
0.420837
0.419617
0.418091
0.41748
0.416565
0.415955
0.414124
0.412292
0.412292
0.411072
0.409241
0.409241
0.408325
0.407104
0.405579
0.404663
0.403442
0.402527
0.401611
0.400391
0.39917
0.397339
0.397034
0.395813
0.395203
0.393677
0.393066
0.391846
0.390625
0.389709
0.389099
0.388184
0.386963
0.386047
0.385132
0.384827
0.383606
0.38269
0.38147
0.381165
0.380554
0.379639
0.379028
0.377808
0.377502
0.376892
0.375977
0.375061
0.374756
0.37384
0.37323
0.372314
0.372009
0.371094
0.369568
0.369568
0.368652
0.368042
0.366821
0.365295
0.36499
0.36438
0.363159
0.362854
0.361328
0.361023
0.359802
0.359497
0.358582
0.358276
0.357056
0.356445
0.35553
0.354919
0.353699
0.353699
0.352783
0.352173
0.351562
0.350342
0.349731
0.349731
0.348816
0.347595
0.34668
0.346375
0.345154
0.344238
0.344238
0.343628
0.342102
0.341797
0.340576
0.339966
0.339661
0.338745
0.338135
0.337524
0.335999
0.335083
0.334473
0.334167
0.332947
0.332947
0.331421
0.330505
0.330505
0.32959
0.328979
0.328064
0.326538
0.326233
0.325012
0.324402
0.323486
0.323181
0.32196
0.321655
0.32074
0.319824
0.319519
0.318604
0.317993
0.316772
0.316162
0.316772
0.314941
0.314026
0.314026
0.314026
0.312805
0.312195
0.312805
0.311584
0.3125
0.311584
0.311279
0.310364
0.310059
0.310364
0.309753
0.309448
0.308838
0.308533
0.308228
0.308533
0.308228
0.307617
0.307007
0.307007
0.307007
0.306396
0.306091
0.306396
0.305176
0.304871
0.304871
0.30426
0.30426
0.303955
0.303955
0.302734
0.303345
0.302124
0.302124
0.302429
0.302429
0.302734
0.301819
0.302124
0.301819
0.302124
0.301819
0.301208
0.300903
0.301208
0.300598
0.299988
0.299988
0.300293
0.299377
0.299072
0.298767
0.298157
0.298157
0.298157
0.298462
0.297546
0.297546
0.297241
0.297241
0.296631
0.296326
0.296631
0.296021
0.295715
0.2948
0.2948
0.294495
0.294495
0.293579
0.293274
0.292969
0.291443
0.292358
0.291443
0.291138
0.290527
0.290222
0.289001
0.289917
0.289612
0.289001
0.288696
0.288086
0.288391
0.288086
0.287781
0.28717
0.287476
0.28717
0.286865
0.28656
0.28656
0.286255
0.28595
0.285645
0.285339
0.285645
0.285034
0.285034
0.285339
0.284729
0.285034
0.283813
0.284424
0.283813
0.283813
0.283508
0.283508
0.282898
0.283813
0.281982
0.282288
0.282288
0.281677
0.281982
0.282288
0.281982
0.281677
0.281677
0.281677
0.281982
0.281677
0.281677
0.282288
0.282288
0.281982
0.281677
0.281982
0.281372
0.281982
0.281372
0.281372
0.281982
0.281677
0.281982
0.282593
0.282288
0.282288
0.283203
0.282288
0.281677
0.282593
0.282288
0.281982
0.283508
0.282593
0.282898
0.282593
0.282288
0.283203
0.282593
0.282898
0.282593
0.283203
0.283508
0.283508
0.283508
0.283508
0.283203
0.283813
0.283813
0.283813
0.284119
0.284729
0.283813
0.284424
0.284729
0.284424
0.284424
0.284119
0.283813
0.284729
0.285645
0.284729
0.285034
0.284424
0.28595
0.285339
0.285034
0.28595
0.285034
0.285034
0.28656
0.285645
0.285645
0.285645
0.28656
0.28595
0.28595
0.28656
0.28656
0.28717
0.286865
0.286865
0.28656
0.28717
0.287476
0.288086
0.288391
0.288391
0.289001
0.289001
0.289917
0.289612
0.290222
0.289917
0.290833
0.290527
0.290833
0.290833
0.291443
0.291748
0.291748
0.292053
0.292664
0.293579
0.293274
0.293884
0.293884
0.2948
0.294495
0.294495
0.294189
0.2948
0.29541
0.295715
0.29541
0.295715
0.29541
0.296326
0.296021
0.296631
0.296326
0.296936
0.296326
0.296631
0.296326
0.296936
0.297241
0.298157
0.296936
0.297546
0.298462
0.297852
0.298462
0.298767
0.299377
0.298462
0.299377
0.298767
0.299072
0.299072
0.299072
0.299683
0.299377
0.299377
0.299988
0.299988
0.300903
0.300903
0.301208
0.301514
0.301514
0.301208
0.301208
0.300903
0.301208
0.301819
0.301514
0.302124
0.302429
0.302124
0.301514
0.302734
0.30304
0.30304
0.30304
0.302734
0.303955
0.302734
0.30365
0.30426
0.30426
0.30426
0.304871
0.304871
0.305481
0.306091
0.306702
0.306702
0.306396
0.307007
0.307312
0.307922
0.307617
0.308838
0.308533
0.309448
0.310364
0.310974
0.31189
0.31189
0.311584
0.312195
0.312195
0.312805
0.314331
0.314941
0.314636
0.315857
0.316772
0.317383
0.317993
0.318298
0.319519
0.320435
0.321655
0.322876
0.323792
0.324097
0.325317
0.326538
0.328064
0.329285
0.329895
0.332031
0.333557
0.335388
0.336914
0.33905
0.341797
0.342712
0.344849
0.347595
0.350647
0.353088
0.35614
0.360107
0.363464
0.366821
0.371094
0.375366
0.380249
0.384827
0.390625
0.395508
0.400696
0.406799
0.413513
0.419617
0.426025
0.432739
0.439453
0.447083
0.454712
0.462036
0.469971
0.4776
0.48584
0.493469
0.502625
0.510559
0.519104
0.526733
0.534973
0.544128
0.552673
0.560913
0.569458
0.577393
0.586243
0.594177
0.602722
0.611572
0.618591
0.627136
0.635681
0.643616
0.65155
0.65918
0.666809
0.673828
0.681763
0.688477
0.695801
0.701904
0.709534
0.715942
0.722961
0.728455
0.735168
0.740662
0.746155
0.751038
0.758057
0.76355
0.769348
0.773621
0.778809
0.783386
0.787354
0.792542
0.795898
0.800476
0.804138
0.808105
0.811462
0.815735
0.818787
0.822144
0.825806
0.829163
0.831299
0.834961
0.837402
0.840454
0.842285
0.844421
0.847168
0.848999
0.85144
0.852966
0.855103
0.856018
0.858154
0.859375
0.861206
0.862427
0.863953
0.865173
0.865479
0.866699
0.867615
0.86792
0.869141
0.869751
0.870972
0.871277
0.871582
0.872192
0.872498
0.872192
0.873108
0.874023
0.874023
0.874329
0.873413
0.873718
0.874329
0.873718
0.874023
0.874023
0.874329
0.874329
0.873718
0.873413
0.874329
0.873108
0.873108
0.872803
0.873413
0.873108
0.872192
0.871582
0.872192
0.870972
0.870361
0.870361
0.871277
0.870056
0.869751
0.869141
0.869751
0.868835
0.86792
0.867615
0.86792
0.86731
0.866699
0.866394
0.865784
0.865173
0.865173
0.864563
0.863953
0.863647
0.863037
0.862732
0.861816
0.861511
0.860901
0.860901
0.860291
0.859985
0.858765
0.859375
0.858459
0.858765
0.857849
0.857544
0.856628
0.856934
0.856323
0.856018
0.856018
0.856018
0.855713
0.854797
0.853882
0.853577
0.853271
0.853271
0.852356
0.852966
0.851746
0.852661
0.851135
0.851746
0.85083
0.850525
0.850525
0.849609
0.849609
0.849304
0.848999
0.848694
0.847778
0.846863
0.846863
0.847168
0.846252
0.845337
0.844727
0.844421
0.843811
0.843506
0.843201
0.841675
0.840759
0.840149
0.839844
0.838623
0.837402
0.836792
0.835571
0.834656
0.834351
0.832214
0.831299
0.830994
0.828857
0.827942
0.827637
0.826111
0.82489
0.823669
0.822144
0.820923
0.820007
0.818787
0.81665
0.816345
0.814209
0.812378
0.810852
0.809326
0.808105
0.805969
0.804443
0.802917
0.801697
0.799561
0.797119
0.796204
0.794373
0.792542
0.790405
0.789185
0.787048
0.784912
0.783691
0.78186
0.78125
0.778503
0.776672
0.774231
0.773315
0.770874
0.769043
0.766907
0.765686
0.76416
0.762024
0.759888
0.758362
0.756836
0.754089
0.753174
0.751953
0.749817
0.748291
0.74707
0.744629
0.742798
0.741577
0.740051
0.737915
0.736694
0.735168
0.733032
0.731201
0.730286
0.727844
0.726624
0.725098
0.724487
0.722961
0.720825
0.71991
0.719299
0.718384
0.717163
0.715942
0.715332
0.713806
0.71228
0.71106
0.709839
0.709229
0.708313
0.707397
0.706177
0.704956
0.704041
0.70343
0.702515
0.701294
0.700684
0.700073
0.698853
0.698547
0.697632
0.697327
0.696411
0.695496
0.694275
0.694275
0.693359
0.693359
0.693359
0.691833
0.691528
0.690918
0.690613
0.690002
0.690002
0.689392
0.689697
0.689087
0.688782
0.687866
0.688171
0.687561
0.687561
0.687561
0.687256
0.686035
0.686035
0.686035
0.685425
0.684814
0.684509
0.684814
0.683899
0.683899
0.684204
0.682678
0.682678
0.682373
0.682068
0.682068
0.680847
0.681152
0.680237
0.679321
0.679932
0.679321
0.678711
0.678406
0.677795
0.676575
0.675964
0.67627
0.675049
0.674438
0.673523
0.672913
0.672607
0.671692
0.671082
0.670166
0.669861
0.66864
0.668335
0.666809
0.666504
0.665283
0.664673
0.663757
0.663147
0.662231
0.661011
0.65979
0.65979
0.658875
0.657959
0.656738
0.656128
0.655212
0.654602
0.654297
0.653076
0.651855
0.651245
0.65033
0.648804
0.647888
0.647278
0.646057
0.645752
0.644226
0.643311
0.641785
0.641479
0.640869
0.639038
0.637512
0.636292
0.635071
0.63385
0.633545
0.632019
0.631104
0.629578
0.628357
0.627441
0.62561
0.625
0.623474
0.622253
0.621033
0.619507
0.618896
0.617065
0.615234
0.614319
0.613098
0.611267
0.610046
0.608826
0.607605
0.606079
0.604553
0.603638
0.601807
0.59967
0.59845
0.596924
0.596008
0.594177
0.593262
0.591125
0.589294
0.588379
0.586853
0.585022
0.582581
0.581665
0.580444
0.578613
0.577087
0.574951
0.573425
0.571899
0.571289
0.568848
0.566711
0.564575
0.563965
0.561218
0.559692
0.558167
0.556946
0.55481
0.554199
0.552063
0.550232
0.548401
0.54718
0.545349
0.544128
0.542297
0.541382
0.538635
0.537415
0.535278
0.534363
0.532532
0.531616
0.53009
0.527954
0.526733
0.525208
0.523987
0.522156
0.520325
0.519104
0.516663
0.515442
0.515442
0.513916
0.512695
0.510864
0.509644
0.507812
0.506287
0.505371
0.50354
0.502625
0.501709
0.500793
0.498962
0.497742
0.495911
0.495605
0.49408
0.492859
0.491638
0.491028
0.489502
0.488586
0.487671
0.48584
0.484619
0.484314
0.482788
0.482483
0.480652
0.479736
0.478821
0.4776
0.47699
0.475769
0.474548
0.473633
0.472717
0.470886
0.470886
0.469666
0.46875
0.467834
0.466919
0.465698
0.464783
0.464172
0.462952
0.462341
0.460815
0.460205
0.459595
0.458069
0.457153
0.456848
0.455933
0.455017
0.454102
0.453491
0.452881
0.45166
0.450439
0.449524
0.447998
0.446777
0.446472
0.444336
0.444336
0.443115
0.440979
0.440674
0.440369
0.439453
0.438232
0.437012
0.436707
0.435791
0.435181
0.433655
0.433655
0.433044
0.432434
0.431824
0.431213
0.429688
0.428467
0.428467
0.427246
0.426636
0.42572
0.425415
0.424805
0.423584
0.423279
0.422668
0.420837
0.421143
0.420532
0.419312
0.418091
0.418396
0.417786
0.416565
0.416565
0.414734
0.414734
0.413818
0.413208
0.412292
0.411377
0.410461
0.409546
0.409241
0.408325
0.407715
0.406799
0.407104
0.406189
0.405273
0.404968
0.404053
0.403442
0.403137
0.402832
0.401611
0.402222
0.401001
0.400085
0.39978
0.39917
0.39856
0.397339
0.397644
0.396729
0.395813
0.394897
0.395203
0.394592
0.393372
0.393677
0.392456
0.392456
0.392151
0.391235
0.391541
0.39032
0.389709
0.389404
0.389099
0.387573
0.387268
0.387268
0.386963
0.386353
0.385742
0.385132
0.384827
0.384827
0.383911
0.384521
0.383301
0.382996
0.38269
0.38208
0.38208
0.381165
0.380554
0.380554
0.380249
0.379333
0.378723
0.378113
0.377808
0.377197
0.376282
0.376282
0.375366
0.374756
0.374451
0.374451
0.374451
0.373535
0.372925
0.372314
0.372314
0.372314
0.371094
0.370789
0.370483
0.369873
0.369568
0.368347
0.368652
0.368042
0.367432
0.366516
0.366821
0.366211
0.366211
0.365601
0.365601
0.36499
0.364685
0.36438
0.363464
0.362854
0.363159
0.363159
0.362244
0.362549
0.361633
0.361023
0.361328
0.360413
0.360413
0.360413
0.359497
0.359192
0.359192
0.358582
0.357666
0.358887
0.358276
0.357666
0.357361
0.35614
0.35675
0.35553
0.355835
0.355835
0.354919
0.354614
0.354004
0.354004
0.353699
0.353088
0.353394
0.353394
0.353394
0.352478
0.352173
0.352478
0.351868
0.351868
0.351257
0.351562
0.350647
0.350952
0.350037
0.349731
0.349426
0.349731
0.349426
0.349121
0.349121
0.348206
0.348816
0.348206
0.348206
0.347595
0.3479
0.347595
0.346985
0.346985
0.346375
0.346985
0.346375
0.345764
0.346069
0.346375
0.345459
0.345154
0.344238
0.344238
0.344849
0.345154
0.345154
0.345154
0.344238
0.344543
0.343933
0.344238
0.343933
0.343933
0.343323
0.343323
0.343628
0.343018
0.342712
0.342712
0.342407
0.343323
0.342407
0.342407
0.342712
0.342712
0.342407
0.342102
0.342407
0.342102
0.342102
0.342712
0.342712
0.342712
0.342712
0.342102
0.341797
0.341797
0.341492
0.341187
0.340576
0.339966
0.340271
0.340271
0.339661
0.339355
0.339661
0.33844
0.33905
0.338745
0.338745
0.33905
0.338135
0.33844
0.338135
0.33783
0.33783
0.338135
0.337219
0.336609
0.336914
0.336609
0.336609
0.337219
0.336914
0.335999
0.336914
0.336304
0.335999
0.335999
0.336304
0.337219
0.336304
0.337524
0.336609
0.336609
0.337219
0.337524
0.337219
0.337219
0.337219
0.33783
0.33844
0.338135
0.33783
0.338135
0.33905
0.33905
0.33844
0.339355
0.339661
0.338745
0.33905
0.338745
0.33905
0.338745
0.339355
0.339355
0.33905
0.33905
0.33905
0.339661
0.339966
0.340271
0.339661
0.339966
0.340271
0.340576
0.340881
0.340881
0.340881
0.341492
0.341797
0.341187
0.342102
0.342102
0.341492
0.342712
0.341797
0.342712
0.341797
0.342407
0.342712
0.343323
0.343323
0.343628
0.343628
0.344543
0.344543
0.343933
0.343933
0.344238
0.345154
0.345459
0.344849
0.345154
0.345154
0.345459
0.345154
0.344543
0.345764
0.345764
0.345459
0.345459
0.345459
0.346985
0.346069
0.346375
0.346375
0.346985
0.346375
0.34729
0.34668
0.346375
0.34729
0.347595
0.34729
0.34729
0.347595
0.348206
0.347595
0.347595
0.347595
0.347595
0.348206
0.347595
0.348511
0.348206
0.349121
0.348816
0.349121
0.349731
0.349731
0.349731
0.349121
0.349121
0.350342
0.349731
0.350342
0.350647
0.350037
0.350952
0.350647
0.350952
0.351562
0.351868
0.352173
0.352478
0.352173
0.352783
0.353088
0.353394
0.353699
0.354004
0.354004
0.354614
0.354004
0.354004
0.35553
0.355225
0.35553
0.354919
0.35553
0.35553
0.357361
0.357361
0.357666
0.358582
0.358887
0.359802
0.361023
0.360718
0.360718
0.361023
0.361328
0.364075
0.364075
0.365295
0.365295
0.366821
0.368042
0.367737
0.370483
0.371094
0.37262
0.37323
0.375977
0.377808
0.379028
0.381165
0.382996
0.385132
0.387268
0.39032
0.393066
0.396118
0.39917
0.402832
0.406494
0.410767
0.415649
0.419617
0.42511
0.429382
0.434265
0.440979
0.446777
0.452576
0.459595
0.466003
0.473022
0.479736
0.487366
0.494385
0.502319
0.509644
0.517273
0.526123
0.534668
0.542908
0.550232
0.558777
0.567322
0.575562
0.583496
0.591736
0.600586
0.609131
0.617371
0.626221
0.634155
0.6427
0.65033
0.658875
0.666809
0.674438
0.682373
0.690308
0.698242
0.705261
0.71228
0.71991
0.726929
0.733948
0.740662
0.747375
0.754395
0.760803
0.767212
0.77301
0.779114
0.785522
0.791016
0.795898
0.801086
0.80658
0.811462
0.81604
0.821533
0.825806
0.831299
0.834961
0.838623
0.843201
0.847168
0.851135
0.855103
0.858765
0.860901
0.864563
0.868225
0.871582
0.874329
0.877075
0.880127
0.882874
0.885315
0.887451
0.889893
0.892029
0.89386
0.896606
0.898132
0.899963
0.9021
0.904236
0.905151
0.906982
0.908203
0.909729
0.91095
0.912781
0.913086
0.915222
0.916138
0.916748
0.918884
0.919495
0.920105
0.92041
0.921936
0.923157
0.923462
0.924377
0.924683
0.925903
0.926208
0.926514
0.927124
0.927734
0.92865
0.92804
0.929565
0.929565
0.930176
0.930176
0.931396
0.930786
0.930481
0.931396
0.930481
0.931702
0.931702
0.931702
0.931702
0.931702
0.932007
0.932617
0.932922
0.933228
0.932922
0.931396
0.932922
0.933228
0.932922
0.933228
0.933533
0.933228
0.933228
0.933228
0.933533
0.933533
0.932922
0.933533
0.933533
0.933838
0.933838
0.934448
0.934143
0.933533
0.934448
0.934143
0.933838
0.934143
0.933838
0.933838
0.933533
0.933838
0.933228
0.932922
0.933228
0.934143
0.933228
0.932922
0.932922
0.933228
0.932922
0.933228
0.932007
0.932007
0.932922
0.931702
0.932007
0.931396
0.931091
0.931091
0.931091
0.930481
0.930481
0.930481
0.929565
0.930176
0.92926
0.92926
0.92865
0.928345
0.92865
0.927429
0.92804
0.928345
0.927429
0.927734
0.927429
0.927429
0.926819
0.926208
0.926208
0.926514
0.926208
0.925293
0.925903
0.925598
0.925598
0.924988
0.924377
0.924683
0.923767
0.923157
0.922852
0.923767
0.922241
0.921936
0.921631
0.921021
0.920105
0.9198
0.918274
0.917664
0.916443
0.915222
0.914612
0.913696
0.913086
0.911255
0.91095
0.909119
0.908508
0.908203
0.906982
0.905762
0.904541
0.90271
0.901794
0.900879
0.899658
0.898132
0.897217
0.895081
0.893555
0.891418
0.890503
0.889282
0.886841
0.88501
0.883484
0.881653
0.879517
0.878296
0.876465
0.874329
0.872803
0.871277
0.868225
0.867004
0.865173
0.863037
0.860596
0.858459
0.856628
0.854492
0.852966
0.850525
0.848999
0.845642
0.843811
0.84137
0.838318
0.836792
0.835266
0.831604
0.830078
0.827942
0.8255
0.823059
0.821533
0.819092
0.81665
0.814514
0.812988
0.810547
0.808716
0.805969
0.804443
0.801697
0.799866
0.798035
0.796204
0.794373
0.792542
0.7901
0.788879
0.786743
0.784912
0.784302
0.783081
0.780334
0.778809
0.777283
0.776062
0.773621
0.77301
0.771484
0.769958
0.769043
0.767517
0.765991
0.765381
0.763855
0.762024
0.761719
0.760193
0.759583
0.758362
0.756836
0.756226
0.754395
0.754089
0.752869
0.751648
0.750427
0.749817
0.749207
0.747375
0.747375
0.74646
0.745239
0.744324
0.743408
0.742188
0.741272
0.740967
0.739746
0.738525
0.737305
0.736084
0.735168
0.733948
0.732727
0.731812
0.730591
0.729065
0.72876
0.727539
0.726624
0.724792
0.723877
0.722351
0.721741
0.720825
0.71991
0.719299
0.718384
0.717773
0.716553
0.715332
0.714417
0.713196
0.711975
0.711365
0.710754
0.708923
0.708618
0.708008
0.706482
0.706787
0.704651
0.704041
0.70343
0.702209
0.700684
0.700989
0.698547
0.698242
0.697021
0.695801
0.694885
0.693359
0.692444
0.692139
0.690918
0.689697
0.687866
0.687256
0.68573
0.684204
0.683289
0.681763
0.680542
0.679321
0.678406
0.677795
0.675659
0.674438
0.673523
0.671997
0.670776
0.669556
0.66803
0.666809
0.664978
0.663452
0.662537
0.661316
0.65918
0.657349
0.655823
0.654297
0.653381
0.651245
0.650635
0.648804
0.647888
0.646362
0.644836
0.643005
0.641479
0.640259
0.638733
0.636902
0.635376
0.63324
0.632629
0.630798
0.629272
0.627136
0.626221
0.62439
0.622864
0.621643
0.620422
0.619202
0.617676
0.61615
0.614319
0.613403
0.610657
0.609436
0.60791
0.605774
0.604858
0.602112
0.600281
0.59906
0.597229
0.594788
0.593262
0.591125
0.5896
0.588379
0.585632
0.584412
0.582275
0.58075
0.578918
0.577087
0.574951
0.572815
0.571594
0.569763
0.567627
0.566711
0.56427
0.561829
0.560303
0.558472
0.556946
0.555725
0.553894
0.552063
0.549927
0.549011
0.54718
0.545349
0.543823
0.541992
0.540771
0.53894
0.536804
0.535889
0.534058
0.531921
0.53009
0.528564
0.526428
0.524292
0.523376
0.521851
0.520325
0.518799
0.516663
0.515747
0.514221
0.51178
0.510254
0.509033
0.507507
0.506287
0.504761
0.50293
0.501404
0.500183
0.498352
0.497131
0.4953
0.49469
0.492554
0.491028
0.490723
0.488892
0.487671
0.487061
0.484924
0.484619
0.482788
0.480957
0.479736
0.479126
0.476685
0.476074
0.474243
0.473328
0.472107
0.470276
0.46875
0.46814
0.467224
0.465698
0.463867
0.462646
0.461121
0.460205
0.458374
0.457458
0.455933
0.454407
0.453796
0.45105
0.450439
0.449524
0.447388
0.445557
0.445557
0.44281
0.441895
0.440674
0.440063
0.438232
0.436401
0.435181
0.433655
0.432129
0.431213
0.429382
0.429077
0.427246
0.426636
0.424194
0.423279
0.422363
0.420837
0.418701
0.418396
0.41626
0.414734
0.414124
0.412903
0.412292
0.410461
0.409851
0.408325
0.407715
0.406494
0.405579
0.404053
0.402832
0.401306
0.400391
0.39917
0.398254
0.397339
0.396118
0.395203
0.393677
0.392761
0.391846
0.39093
0.389404
0.388184
0.388184
0.387268
0.385742
0.385437
0.383301
0.383301
0.381165
0.380554
0.379639
0.378418
0.378113
0.376587
0.375366
0.374146
0.37384
0.372314
0.371399
0.370178
0.368958
0.368042
0.368042
0.365906
0.36499
0.364075
0.362549
0.362549
0.361633
0.360413
0.358582
0.357666
0.357361
0.355835
0.354614
0.354004
0.352783
0.351562
0.350647
0.349426
0.349731
0.34729
0.346985
0.346069
0.345154
0.344543
0.343933
0.342712
0.341797
0.340881
0.339661
0.338745
0.338135
0.337219
0.336609
0.335083
0.334167
0.333557
0.332947
0.332947
0.331726
0.330505
0.329895
0.328979
0.328674
0.328064
0.327759
0.327148
0.326538
0.325928
0.325012
0.323792
0.323181
0.323181
0.32196
0.32135
0.32074
0.320129
0.318909
0.318604
0.317993
0.317078
0.316467
0.316162
0.315552
0.314636
0.314636
0.313416
0.312805
0.31189
0.311279
0.309753
0.309448
0.309143
0.307922
0.306702
0.305481
0.304565
0.304565
0.30365
0.302429
0.301819
0.301208
0.300598
0.299377
0.299683
0.298462
0.297546
0.296326
0.296021
0.2948
0.294495
0.293274
0.292664
0.291748
0.290833
0.290222
0.289001
0.289307
0.289001
0.288391
0.287781
0.28717
0.286865
0.286865
0.28595
0.284729
0.284729
0.283813
0.283813
0.283203
0.283203
0.281982
0.281677
0.281982
0.281067
0.281067
0.280457
0.280762
0.280151
0.280151
0.280151
0.279846
0.279236
0.278625
0.279236
0.279541
0.278625
0.278015
0.279541
0.27832
0.278015
0.27832
0.277405
0.277405
0.27771
0.277405
0.27771
0.27771
0.27771
0.2771
0.27771
0.277405
0.27771
0.27771
0.2771
0.276794
0.276794
0.276794
0.277405
0.276184
0.276184
0.275879
0.275879
0.275574
0.275574
0.275269
0.274353
0.274658
0.275269
0.274963
0.274658
0.274048
0.273743
0.273743
0.273743
0.273438
0.273743
0.273438
0.273132
0.272827
0.273132
0.272827
0.272522
0.272827
0.272827
0.272522
0.272217
0.272217
0.271912
0.272522
0.271606
0.271912
0.271606
0.271606
0.272217
0.272217
0.272217
0.272217
0.272217
0.271606
0.271301
0.270996
0.271301
0.270386
0.270996
0.270386
0.270081
0.26947
0.270691
0.269775
0.270386
0.270081
0.26947
0.26947
0.269165
0.26947
0.269165
0.26886
0.26825
0.26886
0.26886
0.26825
0.26825
0.268555
0.26886
0.26825
0.268555
0.26886
0.267944
0.268555
0.269165
0.26825
0.26886
0.267944
0.26886
0.267639
0.267029
0.267944
0.267944
0.267639
0.267639
0.267944
0.266724
0.267029
0.267029
0.266724
0.267334
0.266724
0.266724
0.266724
0.267334
0.267944
0.267029
0.267639
0.267029
0.266418
0.267029
0.266724
0.266418
0.266418
0.266724
0.266724
0.267334
0.266724
0.267029
0.267639
0.267639
0.267334
0.267029
0.267334
0.267639
0.267944
0.266724
0.267334
0.267334
0.266724
0.267639
0.267944
0.267334
0.267944
0.268555
0.267639
0.268555
0.26825
0.26825
0.267639
0.26886
0.267639
0.26825
0.268555
0.269775
0.26886
0.269775
0.269775
0.270081
0.26947
0.270691
0.271301
0.271301
0.271301
0.271301
0.272217
0.271912
0.271912
0.272217
0.272522
0.272217
0.272827
0.272522
0.273743
0.274048
0.274658
0.274353
0.274353
0.275269
0.275269
0.276184
0.275879
0.275574
0.2771
0.276184
0.276794
0.277405
0.27771
0.277405
0.278931
0.27832
0.278931
0.279846
0.280457
0.279541
0.280762
0.281372
0.281982
0.281982
0.282593
0.282288
0.283813
0.283508
0.284729
0.284119
0.284729
0.284424
0.284729
0.284424
0.286255
0.286255
0.287476
0.28717
0.287476
0.288086
0.288391
0.289001
0.288696
0.289917
0.289612
0.289612
0.290222
0.289917
0.289917
0.290833
0.290833
0.290833
0.290833
0.290833
0.291443
0.292358
0.292358
0.292664
0.292664
0.293579
0.292664
0.293274
0.293274
0.293579
0.293884
0.293579
0.293579
0.293579
0.294495
0.294189
0.295105
0.294495
0.29541
0.2948
0.295715
0.29541
0.296021
0.296021
0.295715
0.296936
0.296631
0.297241
0.297546
0.297546
0.298157
0.298767
0.299072
0.298767
0.299072
0.299377
0.299683
0.299988
0.300598
0.300293
0.301819
0.302124
0.302734
0.30365
0.30304
0.304871
0.304871
0.305176
0.305481
0.307617
0.309143
0.309448
0.310364
0.311584
0.3125
0.313721
0.315552
0.315857
0.317993
0.319519
0.322266
0.323181
0.325317
0.328064
0.330505
0.332947
0.335388
0.338745
0.341797
0.345154
0.348511
0.352478
0.35675
0.361328
0.365601
0.370789
0.375977
0.381775
0.386353
0.392151
0.39856
0.405273
0.411682
0.418396
0.42572
0.431519
0.440979
0.447998
0.455017
0.463562
0.470581
0.478516
0.487061
0.49408
0.50293
0.511475
0.519409
0.528259
0.535889
0.545349
0.552979
0.561523
0.570374
0.577698
0.586548
0.594482
0.602722
0.610657
0.617371
0.626221
0.633545
0.640869
0.648804
0.656433
0.663147
0.671082
0.67749
0.684814
0.691528
0.698242
0.704041
0.710754
0.716858
0.722961
0.72937
0.735168
0.740356
0.74646
0.751953
0.757751
0.762329
0.767212
0.7724
0.776978
0.78125
0.785828
0.78949
0.794067
0.79834
0.802002
0.805664
0.809631
0.813599
0.817566
0.820312
0.823975
0.827942
0.830688
0.834045
0.837402
0.839844
0.843201
0.845337
0.846863
0.849304
0.851746
0.853577
0.856018
0.857849
0.859985
0.861816
0.863037
0.864563
0.866699
0.868835
0.870361
0.871582
0.872498
0.874329
0.875549
0.876465
0.877686
0.878906
0.879517
0.881042
0.881653
0.882568
0.883484
0.884399
0.885315
0.885315
0.886841
0.886841
0.888062
0.888977
0.889893
0.890503
0.889893
0.890503
0.891724
0.891113
0.892334
0.892334
0.892334
0.892639
0.893555
0.892639
0.89386
0.89325
0.89386
0.89386
0.89325
0.89325
0.89325
0.893555
0.89386
0.89325
0.89325
0.893555
0.894165
0.894165
0.89386
0.89325
0.893555
0.89325
0.893555
0.892944
0.89325
0.892944
0.892639
0.893555
0.892639
0.89325
0.893555
0.89386
0.893555
0.892944
0.89325
0.893555
0.893555
0.893555
0.892944
0.892639
0.892944
0.892944
0.892639
0.892029
0.892029
0.891724
0.892029
0.891418
0.891418
0.891724
0.890198
0.891113
0.890503
0.890198
0.890808
0.889587
0.890198
0.890503
0.889893
0.889587
0.889282
0.889587
0.888977
0.888672
0.888977
0.887756
0.887146
0.888367
0.887451
0.887756
0.886536
0.886841
0.886841
0.886536
0.886841
0.886536
0.885925
0.88562
0.885925
0.885925
0.885315
0.885925
0.884399
0.884705
0.884399
0.883484
0.883179
0.882568
0.882263
0.881653
0.881653
0.881042
0.880432
0.880127
0.879822
0.879211
0.878906
0.877686
0.87677
0.876465
0.87616
0.874939
0.873413
0.873108
0.872192
0.871582
0.870667
0.870361
0.86853
0.86792
0.86731
0.865784
0.864563
0.863342
0.862122
0.860901
0.859375
0.858154
0.857239
0.856018
0.854492
0.852356
0.85083
0.85022
0.848083
0.846252
0.845642
0.843506
0.84198
0.840454
0.838928
0.836792
0.835266
0.834045
0.831909
0.830383
0.828552
0.827026
0.825195
0.822449
0.821838
0.818787
0.817566
0.815125
0.813293
0.811768
0.809631
0.808411
0.806274
0.804138
0.802307
0.800171
0.798645
0.796204
0.795288
0.792542
0.791321
0.78949
0.787354
0.785522
0.783691
0.78125
0.779724
0.778198
0.775757
0.774536
0.7724
0.770874
0.769653
0.767822
0.766602
0.765686
0.763855
0.762634
0.760498
0.759277
0.757751
0.75592
0.75531
0.753479
0.751953
0.750732
0.748291
0.747681
0.746155
0.745239
0.743103
0.742493
0.741577
0.739746
0.739136
0.737
0.736694
0.735474
0.735168
0.733643
0.732422
0.731506
0.730286
0.729065
0.728149
0.727234
0.725708
0.726318
0.724487
0.723572
0.722351
0.722046
0.72052
0.720825
0.718689
0.718689
0.716858
0.716248
0.715942
0.714417
0.714111
0.713501
0.712585
0.711365
0.710449
0.709534
0.709229
0.707703
0.706482
0.707092
0.704956
0.704956
0.704041
0.704346
0.703125
0.702209
0.701294
0.700378
0.700378
0.699463
0.698547
0.697632
0.69519
0.695801
0.69519
0.69458
0.693665
0.692139
0.691528
0.690613
0.690308
0.688477
0.687561
0.686646
0.686035
0.68512
0.683899
0.682983
0.681763
0.681458
0.679932
0.678711
0.678101
0.67688
0.67627
0.675354
0.674744
0.673523
0.671692
0.671692
0.669861
0.668945
0.667725
0.666504
0.665894
0.664062
0.662537
0.661926
0.661011
0.65979
0.65918
0.657349
0.656128
0.655212
0.653381
0.652161
0.65033
0.65033
0.647888
0.646667
0.645752
0.643616
0.6427
0.642395
0.640869
0.639038
0.637817
0.636597
0.634155
0.633545
0.632324
0.631714
0.629578
0.628662
0.626831
0.62561
0.623779
0.622864
0.621338
0.620728
0.618591
0.617065
0.61615
0.614624
0.613098
0.611877
0.609436
0.608826
0.60791
0.606384
0.604553
0.602417
0.601807
0.599976
0.597839
0.596313
0.595093
0.594177
0.591431
0.59021
0.588989
0.587463
0.585632
0.584717
0.582886
0.580444
0.579834
0.578918
0.577087
0.575256
0.57373
0.571899
0.570679
0.568542
0.566711
0.565491
0.56366
0.562439
0.559692
0.559082
0.557251
0.55542
0.554199
0.552063
0.550842
0.549011
0.547485
0.545654
0.544434
0.542603
0.541077
0.539551
0.53833
0.536499
0.534668
0.533447
0.531311
0.528564
0.528259
0.526123
0.524902
0.523071
0.52124
0.520325
0.516663
0.516357
0.515442
0.513
0.512085
0.510254
0.508423
0.507202
0.505371
0.504456
0.50293
0.500183
0.500183
0.497742
0.496521
0.494995
0.492859
0.492554
0.489807
0.488586
0.487366
0.486145
0.484314
0.483093
0.481873
0.480042
0.478516
0.476685
0.475769
0.473022
0.472412
0.471802
0.469971
0.46875
0.466919
0.465698
0.463867
0.462341
0.46051
0.458679
0.458069
0.456543
0.454712
0.453796
0.452576
0.450745
0.449829
0.447693
0.446777
0.445251
0.443726
0.442505
0.441895
0.439758
0.437927
0.437012
0.435486
0.43396
0.43396
0.431824
0.430908
0.428772
0.427856
0.426331
0.426025
0.424805
0.423584
0.422363
0.420837
0.420227
0.419312
0.417786
0.417175
0.416565
0.415039
0.413818
0.412903
0.411682
0.411072
0.409546
0.408936
0.40741
0.406799
0.405579
0.404663
0.403748
0.402527
0.402222
0.400391
0.39978
0.398254
0.397949
0.396729
0.395813
0.394897
0.394287
0.393066
0.391541
0.39093
0.390625
0.388489
0.388489
0.387573
0.386658
0.386047
0.384521
0.383301
0.382996
0.381775
0.380249
0.379639
0.377808
0.377808
0.376282
0.375061
0.37384
0.372314
0.371704
0.370483
0.369873
0.368042
0.367432
0.366516
0.365601
0.36377
0.364075
0.362244
0.361633
0.360718
0.360107
0.359192
0.358582
0.35675
0.35614
0.355225
0.354614
0.354004
0.351868
0.351868
0.351562
0.350647
0.349731
0.348511
0.3479
0.346375
0.346375
0.345154
0.345154
0.344543
0.343018
0.342102
0.342102
0.341187
0.339355
0.339966
0.338135
0.338135
0.337219
0.336914
0.335388
0.335693
0.334778
0.334473
0.333557
0.332947
0.332031
0.332336
0.331421
0.331116
0.330811
0.329895
0.329285
0.328674
0.328369
0.328064
0.327759
0.327454
0.327148
0.326233
0.326233
0.325623
0.325317
0.324707
0.323792
0.324402
0.323792
0.322876
0.322571
0.322571
0.32196
0.32135
0.321045
0.320129
0.319824
0.319214
0.319519
0.318909
0.317383
0.317078
0.316772
0.316467
0.315857
0.315857
0.314636
0.314026
0.314636
0.314026
0.314331
0.313416
0.3125
0.3125
0.31189
0.311584
0.311584
0.311279
0.310364
0.310059
0.310364
0.309753
0.309143
0.309753
0.308533
0.308838
0.308533
0.308228
0.308228
0.307922
0.307922
0.306396
0.306702
0.306396
0.306091
0.305481
0.304871
0.304565
0.304565
0.30426
0.30365
0.30365
0.303345
0.303955
0.303345
0.302734
0.302734
0.30304
0.301514
0.301819
0.302124
0.301819
0.301819
0.300598
0.300598
0.300598
0.299683
0.299683
0.299683
0.299377
0.299377
0.299377
0.298157
0.299377
0.298767
0.298462
0.298462
0.298157
0.298157
0.298462
0.297852
0.297852
0.298157
0.297241
0.296936
0.296326
0.296021
0.2948
0.29541
0.2948
0.294495
0.293884
0.293579
0.293884
0.292664
0.292664
0.292969
0.292053
0.292053
0.291443
0.290833
0.291138
0.290222
0.289612
0.289001
0.288696
0.288391
0.288391
0.288086
0.287781
0.286865
0.286865
0.286865
0.286255
0.286865
0.285645
0.286865
0.28595
0.28595
0.284729
0.285339
0.285339
0.285339
0.285034
0.284729
0.284729
0.284119
0.283813
0.283508
0.283203
0.283203
0.283508
0.283203
0.282898
0.282898
0.282593
0.282593
0.281982
0.282593
0.282593
0.281982
0.282288
0.281982
0.282288
0.281982
0.281677
0.281677
0.281677
0.281677
0.281372
0.281372
0.280457
0.280762
0.281372
0.280762
0.281372
0.280762
0.280457
0.280762
0.280151
0.281067
0.281067
0.281067
0.280151
0.280151
0.281067
0.280762
0.280457
0.280762
0.280457
0.280762
0.281372
0.280762
0.281067
0.281067
0.280762
0.281372
0.281372
0.281372
0.281677
0.281372
0.281677
0.281677
0.281372
0.281677
0.281982
0.281677
0.281677
0.282288
0.281982
0.282593
0.282593
0.282898
0.283813
0.283813
0.282898
0.283813
0.283813
0.285034
0.284729
0.285645
0.285339
0.28595
0.284729
0.286255
0.28656
0.28717
0.28656
0.287476
0.287476
0.287476
0.288696
0.288391
0.288391
0.288696
0.289612
0.289307
0.289612
0.290222
0.290527
0.291138
0.290833
0.291748
0.291443
0.292969
0.292053
0.292664
0.292969
0.292969
0.292358
0.293884
0.294189
0.293884
0.2948
0.2948
0.29541
0.295715
0.296021
0.296326
0.296326
0.297241
0.296936
0.298157
0.297852
0.298462
0.298462
0.298767
0.299988
0.299683
0.300293
0.299988
0.300598
0.300903
0.300903
0.301514
0.302124
0.302734
0.302734
0.303345
0.303345
0.303955
0.303955
0.30426
0.30426
0.305481
0.305176
0.304871
0.305481
0.305786
0.306702
0.307007
0.307312
0.307922
0.308533
0.308533
0.309143
0.309143
0.309143
0.309753
0.309753
0.310364
0.310974
0.310364
0.310059
0.310669
0.310364
0.310974
0.310669
0.310974
0.310669
0.310974
0.311279
0.311584
0.311584
0.31189
0.31189
0.3125
0.312195
0.312195
0.31311
0.3125
0.312805
0.31311
0.313721
0.314026
0.314331
0.314331
0.314331
0.314941
0.314941
0.315857
0.315247
0.315247
0.316772
0.316467
0.317383
0.317383
0.318604
0.319214
0.319214
0.319824
0.319519
0.319824
0.321045
0.321045
0.321655
0.32196
0.32196
0.322876
0.323792
0.324097
0.324097
0.324707
0.325012
0.325317
0.325623
0.327148
0.327454
0.327759
0.327759
0.327759
0.328979
0.32959
0.329895
0.329895
0.330505
0.330811
0.331116
0.332031
0.332642
0.333252
0.333862
0.333862
0.335083
0.335388
0.335999
0.337219
0.338745
0.339355
0.339355
0.340881
0.340881
0.342712
0.343933
0.344849
0.345459
0.346985
0.348206
0.349731
0.350037
0.352173
0.352478
0.354309
0.356445
0.358276
0.359497
0.361328
0.363464
0.365295
0.367737
0.369873
0.372925
0.375061
0.378418
0.38208
0.385742
0.389099
0.393066
0.397034
0.401917
0.407104
0.413208
0.417786
0.423279
0.430298
0.436401
0.44281
0.450745
0.456848
0.464783
0.471802
0.479736
0.488281
0.496216
0.504456
0.512695
0.521545
0.53009
0.538635
0.547485
0.556335
0.56427
0.57373
0.582275
0.591736
0.600281
0.609131
0.617981
0.626221
0.634766
0.643005
0.651855
0.659485
0.667725
0.675659
0.683594
0.691223
0.699158
0.706177
0.713806
0.720825
0.728149
0.735168
0.741272
0.749207
0.7547
0.761719
0.767822
0.773621
0.780029
0.784607
0.789795
0.795288
0.801086
0.805969
0.809937
0.814819
0.818787
0.823364
0.827637
0.831299
0.834961
0.838318
0.842285
0.845642
0.848083
0.852051
0.854492
0.857239
0.859985
0.862427
0.865479
0.867004
0.869446
0.870667
0.872498
0.874329
0.875854
0.876465
0.879211
0.879822
0.881042
0.881958
0.883484
0.883484
0.88562
0.88623
0.886536
0.887451
0.888062
0.888672
0.888977
0.889587
0.890198
0.890198
0.890808
0.891113
0.891418
0.891113
0.890808
0.891113
0.891724
0.891418
0.891113
0.890808
0.892334
0.891418
0.890808
0.891418
0.890503
0.890808
0.890198
0.890198
0.890198
0.889587
0.889282
0.889587
0.889282
0.888367
0.887451
0.887146
0.887146
0.887146
0.88623
0.88623
0.88501
0.885315
0.88501
0.88501
0.884094
0.883179
0.883179
0.882568
0.882874
0.881958
0.881958
0.881042
0.881042
0.879822
0.879822
0.879211
0.879211
0.877991
0.87677
0.877075
0.876465
0.875854
0.874634
0.875244
0.875244
0.874939
0.873413
0.873413
0.873108
0.872498
0.872498
0.871582
0.871277
0.870056
0.870361
0.869141
0.869446
0.86853
0.86792
0.867615
0.867004
0.866394
0.865173
0.865784
0.864258
0.863647
0.863037
0.863342
0.862732
0.861816
0.861511
0.861206
0.859985
0.860596
0.85907
0.858154
0.858154
0.856934
0.856934
0.856934
0.856018
0.855713
0.856323
0.855103
0.854797
0.854187
0.853577
0.852966
0.852661
0.852051
0.85144
0.851746
0.85083
0.849304
0.849304
0.848999
0.847778
0.846863
0.845642
0.845032
0.844116
0.842896
0.842285
0.84198
0.841064
0.840149
0.838318
0.837402
0.836792
0.836182
0.834961
0.83374
0.832214
0.830688
0.829773
0.828552
0.827637
0.8255
0.8255
0.823669
0.822449
0.821228
0.820618
0.819397
0.817566
0.816345
0.815125
0.812988
0.812378
0.809937
0.808411
0.806885
0.804749
0.802917
0.801697
0.799866
0.798035
0.796509
0.794983
0.793457
0.791931
0.78949
0.788879
0.786743
0.785522
0.783997
0.78125
0.779114
0.777893
0.776062
0.774231
0.77179
0.770569
0.769043
0.766602
0.764771
0.762634
0.761108
0.758972
0.758057
0.756836
0.754395
0.752869
0.750732
0.750122
0.747681
0.74646
0.744629
0.743103
0.741577
0.740967
0.738831
0.737915
0.736389
0.735168
0.733643
0.732422
0.730286
0.72998
0.72876
0.727539
0.725403
0.724487
0.723877
0.723267
0.722656
0.720825
0.719604
0.718689
0.718079
0.717163
0.716553
0.715027
0.714111
0.713196
0.712585
0.71167
0.710449
0.709229
0.708923
0.708923
0.707703
0.706787
0.706482
0.705261
0.704651
0.703735
0.70343
0.702515
0.701904
0.700684
0.700073
0.699768
0.698547
0.698242
0.697021
0.696411
0.696716
0.69519
0.695801
0.69397
0.69458
0.69397
0.693054
0.693359
0.692749
0.691833
0.690918
0.691833
0.690613
0.689392
0.689087
0.688477
0.688171
0.687256
0.686951
0.686646
0.686035
0.685425
0.685425
0.684814
0.684509
0.683899
0.683289
0.683289
0.682983
0.681458
0.681152
0.681152
0.679932
0.680237
0.679626
0.679321
0.678711
0.678101
0.67749
0.67627
0.675964
0.675049
0.675659
0.675049
0.674133
0.673828
0.672302
0.672913
0.671387
0.671082
0.671082
0.669556
0.66864
0.66803
0.667114
0.665588
0.665283
0.664368
0.663452
0.663147
0.662231
0.661011
0.660706
0.658569
0.658264
0.657654
0.656738
0.655823
0.655823
0.653992
0.653381
0.651855
0.65094
0.649719
0.649109
0.647583
0.646973
0.645142
0.643921
0.642395
0.6427
0.640869
0.639343
0.638428
0.637207
0.635986
0.635071
0.63385
0.632324
0.631714
0.630493
0.628662
0.628052
0.626831
0.625916
0.624084
0.623169
0.621643
0.620117
0.619202
0.617676
0.61615
0.615234
0.614014
0.613403
0.610962
0.610657
0.609131
0.608521
0.606689
0.605469
0.604553
0.602722
0.600586
0.599976
0.598145
0.596924
0.595093
0.593567
0.592041
0.59021
0.5896
0.587769
0.587158
0.585022
0.584106
0.582581
0.58136
0.580444
0.579224
0.576172
0.575562
0.574036
0.572815
0.571289
0.570068
0.567932
0.567322
0.565186
0.563965
0.561829
0.561218
0.559387
0.557556
0.556641
0.55481
0.554199
0.552673
0.550842
0.549011
0.547791
0.546265
0.545044
0.543518
0.541687
0.540161
0.538635
0.53772
0.534973
0.534973
0.534363
0.532227
0.531311
0.530396
0.529175
0.527344
0.526428
0.525818
0.524292
0.522766
0.521851
0.52002
0.519409
0.517578
0.516968
0.515137
0.513611
0.513
0.511475
0.510559
0.509033
0.508423
0.506592
0.505676
0.504761
0.50354
0.501404
0.500793
0.499573
0.498962
0.497131
0.496216
0.4953
0.494385
0.492859
0.491943
0.490417
0.489502
0.488892
0.48645
0.484924
0.484314
0.483093
0.481873
0.481262
0.480042
0.478516
0.478516
0.47699
0.475159
0.474548
0.473022
0.472107
0.470886
0.470276
0.46814
0.46814
0.466309
0.466003
0.464478
0.464172
0.462341
0.460815
0.461121
0.460205
0.458984
0.457764
0.457153
0.456543
0.455322
0.454407
0.453186
0.453491
0.451965
0.45105
0.449829
0.448608
0.447693
0.446472
0.446167
0.445557
0.444946
0.443115
0.442505
0.441589
0.441284
0.440979
0.440063
0.437927
0.437012
0.436707
0.435486
0.434875
0.434265
0.432434
0.432434
0.430908
0.429688
0.429993
0.428772
0.427856
0.427856
0.426636
0.42572
0.424194
0.423584
0.423279
0.422363
0.421448
0.420837
0.419922
0.418701
0.41748
0.41748
0.417175
0.41626
0.415649
0.414734
0.414429
0.413513
0.412598
0.411682
0.411377
0.410461
0.409546
0.409851
0.409241
0.408325
0.40741
0.40741
0.406494
0.405273
0.405273
0.404968
0.404358
0.402832
0.402222
0.401306
0.401306
0.400696
0.400085
0.39978
0.398865
0.39856
0.397949
0.397034
0.396423
0.396729
0.395508
0.395508
0.394287
0.393677
0.394287
0.392456
0.391846
0.39093
0.39093
0.390625
0.389099
0.388489
0.388184
0.387878
0.386963
0.387573
0.386963
0.386047
0.386047
0.385742
0.384827
0.384521
0.383911
0.383606
0.382996
0.382385
0.38147
0.38147
0.380249
0.380554
0.379944
0.379639
0.379028
0.378723
0.377502
0.378113
0.377197
0.376587
0.376892
0.376892
0.375366
0.374756
0.374451
0.37384
0.373535
0.37323
0.372925
0.372009
0.372314
0.372314
0.371399
0.370789
0.370483
0.370178
0.369263
0.369568
0.369263
0.368347
0.368347
0.367737
0.368347
0.367432
0.367126
0.366821
0.366821
0.366211
0.365906
0.36499
0.364685
0.36438
0.36438
0.36377
0.362854
0.362549
0.362244
0.363159
0.362244
0.362244
0.361328
0.361328
0.360718
0.360413
0.359802
0.359802
0.359192
0.358887
0.358276
0.357971
0.358276
0.357666
0.357361
0.357666
0.357361
0.357361
0.356445
0.35675
0.356445
0.355835
0.35675
0.35614
0.356445
0.35553
0.355225
0.354614
0.354309
0.354919
0.354309
0.354309
0.354309
0.353394
0.353699
0.354004
0.352783
0.353088
0.353394
0.353088
0.351868
0.351562
0.352173
0.352173
0.350952
0.350647
0.350952
0.351257
0.350342
0.350342
0.350342
0.349426
0.349731
0.349121
0.348511
0.348206
0.348511
0.348206
0.347595
0.3479
0.347595
0.34668
0.345764
0.346375
0.345459
0.344849
0.344849
0.344543
0.344238
0.343933
0.343628
0.343628
0.342407
0.342407
0.341797
0.341492
0.340881
0.341187
0.340576
0.340271
0.340576
0.339966
0.339966
0.33905
0.33905
0.33844
0.33844
0.338135
0.33783
0.338135
0.337524
0.337219
0.337524
0.336609
0.335999
0.336304
0.335999
0.335693
0.335999
0.335693
0.335999
0.335388
0.335388
0.335693
0.335999
0.335388
0.335693
0.335388
0.335388
0.335999
0.335693
0.335388
0.335693
0.335693
0.335388
0.335388
0.335693
0.335388
0.335388
0.335999
0.335999
0.336914
0.335693
0.336914
0.336304
0.336609
0.335999
0.335693
0.336609
0.336304
0.337524
0.336914
0.336914
0.336304
0.337219
0.337219
0.337219
0.33783
0.33783
0.338135
0.33844
0.337219
0.33844
0.338135
0.338135
0.338745
0.338135
0.33783
0.33844
0.338745
0.33844
0.33844
0.338745
0.33844
0.33844
0.338745
0.33844
0.33844
0.338135
0.33844
0.339355
0.33844
0.338745
0.338745
0.33905
0.33905
0.338745
0.338745
0.338745
0.339661
0.338745
0.339661
0.339355
0.339661
0.339966
0.340271
0.340271
0.340271
0.340576
0.341187
0.341187
0.342102
0.342102
0.342407
0.342712
0.342712
0.343323
0.343018
0.342712
0.343323
0.343323
0.343628
0.343933
0.343628
0.343323
0.344238
0.343628
0.344238
0.344543
0.344238
0.344849
0.345154
0.345459
0.345459
0.345459
0.345764
0.345154
0.346069
0.345764
0.34668
0.345764
0.34668
0.346375
0.346069
0.346375
0.34729
0.34729
0.3479
0.347595
0.3479
0.348206
0.3479
0.348816
0.348511
0.348816
0.348816
0.348511
0.349731
0.349426
0.349731
0.349731
0.349731
0.349121
0.350037
0.350342
0.349426
0.349731
0.350037
0.351257
0.351257
0.350647
0.351868
0.350952
0.352173
0.352173
0.352478
0.351868
0.352783
0.353088
0.353088
0.352783
0.352783
0.352783
0.353088
0.353699
0.353088
0.353699
0.354004
0.354614
0.354614
0.35553
0.35553
0.35614
0.35614
0.357056
0.35675
0.357666
0.35614
0.357056
0.357971
0.358276
0.357971
0.357666
0.358582
0.359497
0.359497
0.360107
0.360107
0.361328
0.361633
0.362244
0.362549
0.363464
0.36377
0.364685
0.36499
0.365906
0.366516
0.366821
0.367737
0.368958
0.369568
0.371399
0.372009
0.37323
0.37384
0.375366
0.376282
0.377808
0.379639
0.38147
0.382996
0.385132
0.386658
0.389709
0.391846
0.394287
0.397339
0.39978
0.403442
0.406189
0.410461
0.414124
0.418396
0.422974
0.428467
0.433044
0.437927
0.443115
0.450134
0.455627
0.462646
0.46875
0.475464
0.481567
0.489807
0.496521
0.503845
0.513
0.520325
0.527649
0.536499
0.545044
0.552979
0.561523
0.569763
0.578918
0.587158
0.595703
0.604858
0.613403
0.621643
0.630493
0.637817
0.646667
0.655518
0.663452
0.670776
0.679626
0.687561
0.694885
0.702515
0.710144
0.717163
0.724792
0.731506
0.738525
0.74585
0.751953
0.758667
0.764771
0.771179
0.777588
0.783081
0.789185
0.794373
0.799561
0.805054
0.809631
0.814514
0.819397
0.823975
0.827942
0.83252
0.836792
0.840149
0.844727
0.848083
0.852356
0.854797
0.858765
0.861206
0.864563
0.867004
0.870361
0.872803
0.875244
0.87738
0.880127
0.882263
0.883789
0.88501
0.887146
0.887756
0.889893
0.891724
0.892944
0.89447
0.895386
0.896606
0.897522
0.898438
0.899658
0.900879
0.901489
0.90271
0.90271
0.90332
0.90332
0.903625
0.903931
0.905151
0.905151
0.904846
0.905151
0.905457
0.905151
0.905151
0.905457
0.904846
0.904541
0.904541
0.904541
0.904846
0.904541
0.903931
0.903015
0.90332
0.902405
0.9021
0.9021
0.900879
0.901184
0.900269
0.899963
0.899658
0.899048
0.898743
0.897827
0.898132
0.897217
0.897217
0.896301
0.895386
0.894775
0.894775
0.894165
0.894165
0.892944
0.89325
0.892639
0.892029
0.892029
0.891113
0.891113
0.890198
0.890198
0.889587
0.889893
0.888977
0.888367
0.887756
0.888367
0.887756
0.886841
0.887451
0.885925
0.88623
0.885315
0.885315
0.883789
0.884705
0.883484
0.884094
0.882263
0.882874
0.882263
0.881653
0.881042
0.881042
0.881042
0.880737
0.879211
0.879517
0.879517
0.878906
0.878296
0.877686
0.877686
0.87677
0.87677
0.875854
0.87616
0.875244
0.874939
0.874939
0.874634
0.874023
0.873718
0.874023
0.872803
0.872192
0.871887
0.871887
0.871277
0.870667
0.870667
0.870056
0.869751
0.86853
0.867615
0.866394
0.867004
0.866089
0.865784
0.864563
0.864868
0.863953
0.863037
0.863037
0.861206
0.861511
0.860596
0.85968
0.858154
0.857544
0.856018
0.855713
0.854797
0.853577
0.852051
0.851746
0.85022
0.849304
0.848694
0.847168
0.845642
0.844727
0.843201
0.842285
0.84137
0.839844
0.838013
0.836792
0.835266
0.83374
0.832214
0.830994
0.828857
0.827942
0.826721
0.82489
0.822754
0.820923
0.819092
0.818176
0.816956
0.815125
0.813293
0.811157
0.809326
0.80719
0.806274
0.803833
0.802307
0.800476
0.798645
0.796204
0.794373
0.791931
0.791016
0.788879
0.786133
0.784302
0.782776
0.78064
0.778503
0.776978
0.776062
0.773621
0.771179
0.769958
0.767517
0.765991
0.764465
0.762634
0.760498
0.758667
0.757446
0.755005
0.752869
0.751343
0.749817
0.747986
0.74585
0.744629
0.742798
0.740662
0.739136
0.73761
0.736389
0.734863
0.733337
0.732727
0.72998
0.729065
0.727539
0.725708
0.723877
0.722961
0.722046
0.720215
0.719604
0.718079
0.716553
0.716553
0.714417
0.713501
0.712891
0.711975
0.710754
0.710449
0.708923
0.707397
0.707092
0.707092
0.705872
0.705261
0.704346
0.704041
0.70343
0.701904
0.701599
0.700989
0.700378
0.700073
0.698853
0.699158
0.698547
0.697327
0.697021
0.696716
0.695496
0.695496
0.69519
0.694275
0.69397
0.692749
0.691833
0.691223
0.690613
0.690002
0.688782
0.688171
0.686951
0.68634
0.68573
0.68512
0.684509
0.682983
0.682373
0.682068
0.681152
0.680542
0.680237
0.679321
0.678101
0.67749
0.67627
0.676575
0.674744
0.674744
0.672913
0.672607
0.671692
0.670776
0.670166
0.66925
0.668335
0.66803
0.666809
0.666809
0.666199
0.664978
0.664368
0.662842
0.662231
0.661926
0.661621
0.661316
0.660095
0.659485
0.657959
0.658569
0.657043
0.656433
0.655518
0.654602
0.653381
0.653076
0.652466
0.65094
0.649719
0.649719
0.649109
0.648193
0.646973
0.645447
0.644836
0.643921
0.6427
0.641479
0.640869
0.639954
0.638733
0.636292
0.636597
0.635681
0.63446
0.632935
0.631714
0.629883
0.628967
0.627747
0.626221
0.625305
0.623474
0.622559
0.621033
0.620422
0.619202
0.617676
0.61554
0.614014
0.612488
0.611572
0.609741
0.608215
0.606384
0.605469
0.604248
0.602722
0.600891
0.599976
0.59845
0.597534
0.595093
0.593567
0.592346
0.591125
0.588989
0.588074
0.585938
0.585022
0.583496
0.58136
0.580444
0.578918
0.577698
0.576782
0.575256
0.57312
0.571899
0.570679
0.570068
0.567322
0.566101
0.56427
0.562744
0.561218
0.559692
0.558472
0.556335
0.55542
0.553894
0.551758
0.550232
0.549316
0.548401
0.54657
0.545044
0.543213
0.541992
0.540161
0.539856
0.53833
0.536194
0.534668
0.533447
0.531311
0.52948
0.529175
0.526733
0.525208
0.523682
0.521851
0.52063
0.519714
0.518799
0.517578
0.515747
0.514221
0.513
0.51178
0.510559
0.509338
0.508118
0.506897
0.505066
0.503845
0.501709
0.500488
0.499268
0.498352
0.496521
0.494995
0.493164
0.491333
0.490417
0.488586
0.487671
0.48645
0.485229
0.483704
0.482483
0.481567
0.479431
0.477905
0.476685
0.476074
0.474243
0.473022
0.472412
0.471497
0.469971
0.46814
0.467529
0.466919
0.465698
0.463562
0.463867
0.462036
0.461121
0.460205
0.458679
0.457458
0.456543
0.454712
0.453796
0.452576
0.451355
0.450439
0.449219
0.448303
0.446777
0.446167
0.445251
0.444336
0.44342
0.44281
0.440979
0.440674
0.440063
0.437927
0.438232
0.436096
0.436096
0.43457
0.43335
0.433044
0.430908
0.429993
0.428772
0.428467
0.427856
0.42572
0.42511
0.424194
0.422363
0.422058
0.421143
0.419617
0.419617
0.418091
0.41687
0.415955
0.415039
0.413208
0.413208
0.411377
0.410461
0.410156
0.408325
0.407104
0.406494
0.405273
0.404053
0.403137
0.401917
0.401611
0.401001
0.39978
0.399475
0.397644
0.397339
0.396118
0.395203
0.393677
0.393372
0.392151
0.39093
0.390625
0.389404
0.388489
0.387573
0.386963
0.385437
0.384827
0.384521
0.382996
0.382996
0.38208
0.380859
0.379333
0.379639
0.378723
0.378113
0.376587
0.376892
0.375671
0.374756
0.374756
0.372925
0.37262
0.37262
0.371704
0.370483
0.370178
0.369568
0.369263
0.369263
0.368958
0.367737
0.367432
0.366821
0.366516
0.36499
0.365295
0.364075
0.36377
0.363159
0.361938
0.361633
0.361023
0.360718
0.359497
0.359497
0.358887
0.357971
0.358582
0.357666
0.35675
0.35675
0.355835
0.355225
0.35553
0.354919
0.354614
0.353699
0.353394
0.352478
0.352783
0.352173
0.351868
0.351257
0.350952
0.350647
0.350342
0.349731
0.350037
0.348511
0.3479
0.34729
0.347595
0.34729
0.346375
0.346069
0.345764
0.344849
0.344849
0.344543
0.344238
0.342712
0.342102
0.342712
0.342407
0.341492
0.341797
0.341187
0.340881
0.340576
0.339966
0.339355
0.339355
0.33905
0.33783
0.337524
0.337524
0.337219
0.335999
0.336304
0.335388
0.335693
0.335999
0.334167
0.334167
0.333862
0.333557
0.333252
0.332336
0.333252
0.332336
0.332642
0.332031
0.330811
0.330811
0.3302
0.329895
0.329285
0.32959
0.329285
0.328064
0.328369
0.327759
0.326843
0.326843
0.326843
0.325623
0.325623
0.325317
0.324707
0.324707
0.324097
0.323792
0.324097
0.323792
0.323181
0.323181
0.322266
0.322876
0.32196
0.321655
0.321655
0.321655
0.321045
0.321655
0.320435
0.32074
0.320129
0.320435
0.319824
0.319824
0.319824
0.318909
0.319519
0.318909
0.319214
0.318604
0.318604
0.317993
0.317993
0.316772
0.316772
0.316772
0.316467
0.316467
0.316162
0.316467
0.315552
0.315552
0.315247
0.314941
0.315552
0.314941
0.314941
0.315247
0.314026
0.314331
0.314026
0.313416
0.31311
0.31311
0.31311
0.31311
0.312805
0.31311
0.313416
0.3125
0.3125
0.31311
0.312195
0.312195
0.31189
0.311584
0.3125
0.311584
0.311584
0.31189
0.311584
0.31189
0.310974
0.311279
0.310974
0.310974
0.310364
0.310364
0.310974
0.310669
0.310364
0.310364
0.309753
0.310669
0.310059
0.310059
0.309448
0.309448
0.309143
0.308838
0.309448
0.308533
0.308838
0.308228
0.307922
0.308533
0.307922
0.308533
0.307617
0.308533
0.307922
0.308533
0.308228
0.308838
0.307922
0.307922
0.308533
0.308228
0.307617
0.307617
0.307617
0.308838
0.308228
0.308533
0.308228
0.308228
0.308533
0.308228
0.308838
0.309143
0.309753
0.309448
0.310059
0.309753
0.310059
0.309143
0.310059
0.309753
0.310669
0.310669
0.310669
0.310364
0.311584
0.310669
0.311279
0.311584
0.31189
0.31189
0.31189
0.3125
0.3125
0.31311
0.312195
0.3125
0.312805
0.312805
0.31311
0.313416
0.313721
0.313416
0.313721
0.314026
0.314026
0.313721
0.314331
0.313721
0.314941
0.314331
0.315552
0.315247
0.314941
0.315247
0.315247
0.314941
0.315247
0.314941
0.315857
0.316162
0.315857
0.315857
0.315857
0.316467
0.316162
0.316162
0.316467
0.317078
0.317383
0.317383
0.317383
0.318298
0.317688
0.318298
0.318298
0.319214
0.319214
0.319214
0.319214
0.319824
0.320435
0.320435
0.321045
0.320435
0.321045
0.32135
0.322571
0.322571
0.322266
0.32196
0.323181
0.322876
0.323181
0.323792
0.324402
0.324707
0.324402
0.324097
0.325012
0.325623
0.325623
0.325928
0.325317
0.326233
0.325623
0.326233
0.325928
0.326538
0.326843
0.327148
0.327148
0.328064
0.327759
0.328674
0.329285
0.329895
0.329895
0.330505
0.330505
0.330811
0.332031
0.332336
0.332031
0.332031
0.332947
0.333862
0.333862
0.334167
0.334473
0.335083
0.335083
0.335388
0.335388
0.336304
0.335999
0.337219
0.337219
0.336609
0.338135
0.338135
0.338135
0.33844
0.33905
0.33905
0.339355
0.339966
0.339966
0.340576
0.340881
0.341492
0.341187
0.340881
0.342712
0.342407
0.342712
0.343323
0.343628
0.343933
0.344543
0.344849
0.344849
0.344849
0.345459
0.345154
0.346069
0.346069
0.34668
0.346375
0.34668
0.346985
0.346985
0.347595
0.347595
0.3479
0.348511
0.348511
0.348511
0.348816
0.349731
0.349121
0.349731
0.349426
0.350342
0.351562
0.350647
0.351868
0.351562
0.352478
0.352173
0.353088
0.352478
0.353699
0.354004
0.354614
0.354309
0.354919
0.35553
0.356445
0.35553
0.35553
0.35675
0.357056
0.357056
0.358276
0.358276
0.359497
0.359802
0.359802
0.360413
0.361938
0.362549
0.362854
0.36377
0.364685
0.365601
0.366211
0.367126
0.368347
0.368042
0.369568
0.370178
0.371704
0.372925
0.374451
0.375366
0.376587
0.377808
0.380249
0.381165
0.383301
0.384521
0.387268
0.388794
0.391846
0.393677
0.396729
0.39978
0.403442
0.406799
0.410461
0.414429
0.419617
0.423889
0.428772
0.43396
0.439148
0.445251
0.45166
0.457764
0.465088
0.471497
0.478821
0.48645
0.494385
0.501709
0.509949
0.518494
0.527039
0.535278
0.544128
0.552368
0.561829
0.570679
0.578308
0.588684
0.597839
0.6073
0.61554
0.625305
0.63324
0.6427
0.651855
0.661011
0.670166
0.679321
0.687561
0.696106
0.704956
0.713196
0.721741
0.72937
0.73761
0.745239
0.752563
0.760498
0.768433
0.775452
0.781555
0.789185
0.794983
0.801697
0.808105
0.814514
0.819702
0.826111
0.831604
0.836487
0.84198
0.846863
0.852051
0.856323
0.861511
0.866089
0.869141
0.873413
0.877686
0.881348
0.88501
0.888672
0.890808
0.89447
0.897827
0.900574
0.903015
0.905762
0.908813
0.91095
0.913086
0.916138
0.917053
0.919189
0.920715
0.923157
0.924377
0.925598
0.926819
0.92865
0.929565
0.930481
0.932312
0.933533
0.934143
0.934753
0.936279
0.936584
0.937805
0.938721
0.939026
0.939941
0.940247
0.941162
0.941162
0.941162
0.942383
0.942993
0.943298
0.943604
0.943909
0.944214
0.944214
0.944519
0.944824
0.944519
0.945129
0.944824
0.944824
0.944519
0.944214
0.944824
0.944824
0.944824
0.944824
0.944214
0.943909
0.943604
0.944214
0.942688
0.943298
0.942993
0.942993
0.942383
0.942383
0.942688
0.941162
0.942078
0.941467
0.942078
0.941162
0.940247
0.940552
0.941162
0.940552
0.939636
0.939941
0.939941
0.939941
0.939636
0.939331
0.938721
0.938416
0.938416
0.93811
0.9375
0.9375
0.9375
0.9375
0.9375
0.93689
0.937195
0.93689
0.935669
0.935669
0.935364
0.935059
0.934753
0.935059
0.934448
0.934448
0.932922
0.932312
0.932922
0.932922
0.932007
0.931091
0.930481
0.931091
0.930786
0.92926
0.92926
0.928345
0.92804
0.927429
0.927429
0.927124
0.925598
0.925903
0.924683
0.924988
0.924072
0.924988
0.923462
0.923157
0.922546
0.921936
0.921936
0.921326
0.921631
0.921021
0.92041
0.920105
0.919189
0.918274
0.918274
0.917664
0.916138
0.915527
0.915222
0.914307
0.914001
0.913391
0.91217
0.91095
0.910034
0.910034
0.908813
0.908203
0.906677
0.906372
0.905762
0.905151
0.90271
0.903625
0.9021
0.900879
0.900269
0.899048
0.898132
0.897827
0.896606
0.895386
0.89447
0.894165
0.892944
0.892334
0.891113
0.888977
0.888672
0.887451
0.88623
0.884094
0.882874
0.881958
0.880127
0.878906
0.87738
0.875854
0.874023
0.872803
0.870667
0.869446
0.86792
0.866394
0.865173
0.863342
0.862427
0.860596
0.858154
0.856323
0.854492
0.852966
0.850525
0.849609
0.847473
0.845947
0.842896
0.841675
0.838928
0.837402
0.835571
0.83374
0.831604
0.829163
0.827942
0.8255
0.824585
0.821838
0.820618
0.818176
0.81665
0.814514
0.813293
0.811157
0.809326
0.8078
0.804749
0.803833
0.801697
0.800171
0.79834
0.797424
0.794983
0.794067
0.792236
0.79071
0.789185
0.787964
0.785828
0.784302
0.782776
0.781555
0.780029
0.778809
0.776978
0.776367
0.774231
0.773315
0.771484
0.770264
0.768433
0.767822
0.767212
0.765076
0.764771
0.763245
0.762329
0.761108
0.759277
0.758362
0.757446
0.756531
0.755005
0.754395
0.753174
0.752563
0.750732
0.749817
0.748901
0.748291
0.747375
0.745544
0.74585
0.744629
0.743408
0.742798
0.741272
0.740662
0.740051
0.73822
0.737915
0.737
0.736694
0.734863
0.733643
0.733337
0.732422
0.730591
0.730286
0.729675
0.72876
0.728149
0.727234
0.726318
0.724792
0.723877
0.722656
0.722046
0.72113
0.720215
0.71991
0.718689
0.717468
0.716858
0.715637
0.714722
0.714111
0.712891
0.711365
0.709839
0.710144
0.708618
0.707703
0.706482
0.704956
0.704956
0.704041
0.70282
0.701904
0.700684
0.700073
0.698853
0.698547
0.696106
0.695801
0.694275
0.69397
0.692139
0.691528
0.690613
0.689087
0.687561
0.686646
0.68573
0.684814
0.682983
0.681763
0.680542
0.679626
0.679016
0.67688
0.675964
0.675049
0.673218
0.672302
0.671082
0.669861
0.66803
0.667114
0.666504
0.664368
0.663147
0.661621
0.660095
0.658569
0.657043
0.656128
0.655212
0.653381
0.651855
0.65033
0.648499
0.646973
0.645447
0.643311
0.642395
0.640564
0.639343
0.637512
0.635986
0.633545
0.63324
0.631104
0.629883
0.627747
0.626221
0.623169
0.623474
0.621643
0.619507
0.617676
0.61615
0.614929
0.613098
0.611572
0.609436
0.608215
0.606384
0.604553
0.603027
0.601196
0.59967
0.597839
0.596313
0.594788
0.592651
0.591431
0.59021
0.588074
0.586548
0.584412
0.582886
0.58136
0.579529
0.578308
0.576782
0.574341
0.57312
0.571899
0.569153
0.568237
0.566101
0.56427
0.562439
0.561218
0.559387
0.557861
0.556335
0.554199
0.552979
0.550842
0.548706
0.547485
0.545349
0.543518
0.542297
0.540466
0.539246
0.536804
0.534973
0.532837
0.531921
0.529785
0.52887
0.527344
0.525513
0.523682
0.522156
0.52063
0.519104
0.517883
0.515442
0.514221
0.51239
0.511475
0.509338
0.507812
0.506287
0.50415
0.50293
0.501404
0.499878
0.498352
0.496521
0.494385
0.49408
0.492249
0.490723
0.488281
0.488281
0.486145
0.484314
0.482788
0.481262
0.480042
0.478821
0.47699
0.475769
0.473938
0.473022
0.470886
0.469971
0.46875
0.467224
0.466614
0.464783
0.463867
0.461121
0.460205
0.4599
0.457153
0.455933
0.454712
0.453796
0.451355
0.449829
0.448303
0.447083
0.445557
0.444336
0.443115
0.441895
0.439758
0.438843
0.437622
0.436401
0.43457
0.43396
0.432739
0.431213
0.429688
0.428467
0.426941
0.425415
0.424805
0.422974
0.421753
0.419922
0.418701
0.41687
0.416565
0.415039
0.414124
0.412292
0.410767
0.410156
0.407715
0.40741
0.406189
0.404968
0.403442
0.402527
0.401611
0.400085
0.39856
0.397339
0.395813
0.394592
0.392761
0.391235
0.39032
0.389404
0.387573
0.386353
0.385742
0.384521
0.383301
0.382385
0.380859
0.379028
0.378113
0.376587
0.376587
0.374451
0.37323
0.371704
0.370483
0.369568
0.368958
0.367432
0.366516
0.365601
0.36377
0.362854
0.363464
0.361328
0.361023
0.359497
0.358887
0.357056
0.355835
0.354919
0.353699
0.352478
0.352478
0.351257
0.350342
0.349121
0.348206
0.34729
0.346375
0.345764
0.344543
0.343933
0.342407
0.342102
0.340881
0.339966
0.33905
0.33783
0.338135
0.336914
0.335999
0.335083
0.334167
0.333252
0.333252
0.332336
0.330811
0.330811
0.329895
0.328979
0.328369
0.327148
0.326538
0.325317
0.325317
0.324097
0.324097
0.323181
0.32135
0.321655
0.319214
0.318909
0.318298
0.317078
0.316772
0.315857
0.314636
0.314331
0.314026
0.313416
0.3125
0.31189
0.311279
0.310059
0.309143
0.308533
0.307922
0.307312
0.307007
0.305786
0.305481
0.304565
0.30426
0.303345
0.30304
0.301514
0.301514
0.301208
0.300903
0.299988
0.300293
0.299072
0.298157
0.298157
0.297546
0.297241
0.296326
0.29541
0.295105
0.29541
0.294495
0.293579
0.293274
0.293274
0.292053
0.292053
0.291443
0.291138
0.289917
0.289612
0.289307
0.289001
0.288696
0.288391
0.286865
0.287476
0.28717
0.28595
0.286255
0.285645
0.285034
0.284119
0.284729
0.283813
0.283508
0.284424
0.282288
0.282288
0.282288
0.282288
0.281677
0.280762
0.281067
0.280457
0.280457
0.280457
0.279846
0.278931
0.279236
0.278625
0.27832
0.27771
0.278625
0.27832
0.276794
0.277405
0.2771
0.276794
0.276794
0.276184
0.275574
0.276184
0.275269
0.274658
0.274658
0.274963
0.274353
0.274353
0.274353
0.273132
0.273132
0.272827
0.272827
0.272217
0.271912
0.271606
0.271301
0.271606
0.270996
0.270691
0.270996
0.270691
0.270386
0.270386
0.270386
0.270081
0.26947
0.269775
0.26947
0.26886
0.26886
0.26825
0.267944
0.267334
0.267029
0.267029
0.266418
0.267029
0.265808
0.265808
0.265503
0.265198
0.264893
0.264587
0.264282
0.264282
0.263672
0.264282
0.263977
0.263367
0.263062
0.262756
0.262756
0.262756
0.262451
0.262146
0.262451
0.262146
0.262451
0.262451
0.263062
0.262451
0.262756
0.262451
0.263062
0.262756
0.262756
0.262146
0.262146
0.262756
0.262146
0.262146
0.262756
0.263062
0.263062
0.263062
0.263672
0.263977
0.263062
0.263367
0.263367
0.263977
0.263977
0.264587
0.264587
0.264893
0.264893
0.265198
0.265808
0.264587
0.264587
0.264587
0.265198
0.265503
0.265503
0.265198
0.266113
0.266113
0.266113
0.266113
0.265808
0.266418
0.266418
0.265808
0.266724
0.266418
0.267029
0.266724
0.267334
0.266724
0.266724
0.266724
0.267334
0.266724
0.267029
0.267029
0.267639
0.267029
0.266724
0.267639
0.267639
0.267639
0.268555
0.26825
0.26825
0.268555
0.269165
0.26947
0.26947
0.269775
0.269775
0.269775
0.26947
0.26947
0.269775
0.269775
0.270081
0.270081
0.270996
0.270691
0.271301
0.270691
0.272217
0.271606
0.271912
0.271606
0.271912
0.272827
0.272827
0.273743
0.273132
0.273743
0.274353
0.274963
0.274963
0.274658
0.275269
0.276184
0.2771
0.276794
0.276794
0.277405
0.27771
0.27832
0.279236
0.279541
0.279541
0.280151
0.279846
0.281677
0.281372
0.281982
0.282593
0.282593
0.283203
0.283203
0.284119
0.283813
0.284729
0.285034
0.285339
0.286255
0.286865
0.28717
0.287476
0.288086
0.289307
0.288391
0.289001
0.289612
0.289612
0.290527
0.290222
0.289612
0.290833
0.290833
0.291748
0.292358
0.292053
0.293274
0.293274
0.292969
0.293884
0.293884
0.294495
0.29541
0.295715
0.295105
0.296326
0.296326
0.296631
0.296021
0.296936
0.296631
0.297852
0.298462
0.298462
0.298462
0.299072
0.299683
0.300293
0.299683
0.301208
0.300903
0.301514
0.302124
0.303345
0.30365
0.30426
0.304871
0.305481
0.305786
0.306091
0.307007
0.307922
0.307922
0.307922
0.308838
0.309448
0.309448
0.309753
0.309753
0.310364
0.310974
0.311279
0.312195
0.312195
0.31311
0.312805
0.31311
0.31311
0.314331
0.314026
0.314941
0.315247
0.315552
0.316467
0.317078
0.317078
0.317993
0.318604
0.319519
0.319824
0.319824
0.32074
0.32074
0.32135
0.321655
0.322571
0.322876
0.323181
0.323181
0.324402
0.324707
0.324707
0.324707
0.325623
0.325928
0.326538
0.327454
0.327759
0.328064
0.328369
0.329285
0.329285
0.330505
0.331116
0.332336
0.332642
0.332947
0.334167
0.334778
0.335083
0.335083
0.336304
0.337219
0.33844
0.33905
0.339661
0.340881
0.342407
0.343323
0.343628
0.345459
0.346375
0.3479
0.348816
0.350952
0.351562
0.352783
0.354614
0.355835
0.357056
0.359192
0.360107
0.362854
0.36377
0.366516
0.368042
0.371704
0.374146
0.376587
0.379333
0.382996
0.386658
0.390015
0.393982
0.397949
0.403137
0.407104
0.413208
0.418091
0.424194
0.429688
0.437317
0.443726
0.450745
0.458679
0.466003
0.472412
0.481262
0.489197
0.497742
0.505981
0.515442
0.524292
0.533142
0.543518
0.551453
0.561218
0.570374
0.579529
0.588379
0.59845
0.607605
0.61615
0.625305
0.63446
0.643616
0.653076
0.662537
0.671082
0.679932
0.688782
0.697327
0.705261
0.713501
0.721741
0.730286
0.73761
0.744934
0.751953
0.759583
0.766602
0.77301
0.780945
0.786133
0.791931
0.798035
0.804443
0.810852
0.816345
0.821228
0.827332
0.83252
0.836182
0.84198
0.847168
0.85144
0.855713
0.860291
0.863342
0.867004
0.871277
0.874023
0.877686
0.881348
0.882874
0.886536
0.889587
0.891724
0.894775
0.897217
0.899963
0.901489
0.90332
0.905762
0.907288
0.908508
0.910034
0.912781
0.913391
0.914307
0.916138
0.916748
0.917969
0.918579
0.919495
0.921021
0.921936
0.922546
0.923462
0.923767
0.924072
0.925293
0.925293
0.925903
0.925598
0.925903
0.926208
0.926514
0.926514
0.926208
0.926514
0.925903
0.927124
0.927124
0.926208
0.926208
0.926208
0.925903
0.926208
0.925903
0.925598
0.924988
0.925293
0.924988
0.924072
0.924072
0.923767
0.923462
0.923157
0.922546
0.921326
0.921326
0.921326
0.920105
0.920105
0.920105
0.919189
0.919189
0.918884
0.917969
0.917664
0.917358
0.917053
0.916138
0.916138
0.915527
0.914917
0.913391
0.913086
0.913696
0.911865
0.911865
0.911865
0.911255
0.910034
0.910339
0.909424
0.908813
0.908508
0.908508
0.907288
0.906982
0.906067
0.905151
0.904846
0.904846
0.904541
0.903625
0.903625
0.90271
0.9021
0.901794
0.901184
0.900574
0.900269
0.899353
0.898743
0.898438
0.897522
0.896301
0.896606
0.895996
0.895386
0.89447
0.894165
0.89386
0.892639
0.892029
0.891113
0.891113
0.890503
0.889893
0.889893
0.888672
0.888062
0.887451
0.886841
0.885925
0.88501
0.884094
0.883484
0.882874
0.882874
0.881348
0.881042
0.880432
0.878906
0.878906
0.877686
0.875854
0.874634
0.874634
0.872803
0.872192
0.871582
0.870056
0.868835
0.868225
0.867615
0.866394
0.865173
0.863647
0.862732
0.861511
0.860291
0.859375
0.856934
0.855713
0.854187
0.852661
0.851135
0.85022
0.848389
0.847168
0.845947
0.844116
0.842285
0.840759
0.839844
0.837708
0.836182
0.834961
0.833435
0.831299
0.829773
0.828247
0.8255
0.823975
0.821838
0.820618
0.818481
0.816345
0.814209
0.812378
0.810852
0.8078
0.805969
0.804138
0.802612
0.799561
0.798645
0.795898
0.793762
0.792236
0.79071
0.787659
0.786438
0.783997
0.782471
0.780029
0.777893
0.776367
0.774536
0.7724
0.770264
0.768433
0.766296
0.764771
0.762634
0.760803
0.758667
0.757751
0.755615
0.753784
0.752563
0.750122
0.748596
0.747375
0.746155
0.744324
0.742798
0.741272
0.739441
0.738831
0.737305
0.735779
0.734863
0.733032
0.732727
0.730896
0.72998
0.72876
0.728149
0.727234
0.725708
0.724182
0.723572
0.721741
0.72113
0.719604
0.719604
0.718079
0.716858
0.716553
0.715027
0.714722
0.714722
0.713196
0.712585
0.71167
0.71106
0.710754
0.709534
0.709534
0.708313
0.708008
0.706787
0.706787
0.705566
0.705566
0.704651
0.704346
0.70343
0.703125
0.702515
0.702209
0.701294
0.700684
0.699768
0.700073
0.698547
0.698242
0.697327
0.697327
0.696716
0.69519
0.69519
0.693665
0.693665
0.693359
0.692139
0.691833
0.690918
0.690308
0.689087
0.688782
0.687866
0.688171
0.687256
0.686646
0.685425
0.68512
0.684204
0.683899
0.683899
0.682678
0.682373
0.680847
0.679932
0.679016
0.678406
0.677795
0.67749
0.675964
0.675049
0.674744
0.674133
0.672913
0.672607
0.671692
0.671082
0.669861
0.667725
0.668335
0.667419
0.665894
0.665283
0.663757
0.662537
0.662231
0.661011
0.660095
0.65918
0.657654
0.656128
0.655212
0.654602
0.653076
0.652161
0.651245
0.649719
0.648193
0.646973
0.646362
0.644836
0.643311
0.64209
0.641174
0.639038
0.638123
0.636292
0.634766
0.63385
0.632629
0.631104
0.629578
0.628052
0.626526
0.625
0.624084
0.622559
0.621338
0.619507
0.617981
0.617981
0.61615
0.615234
0.612793
0.611267
0.609741
0.608826
0.606995
0.606384
0.603333
0.602417
0.601501
0.59967
0.597839
0.596008
0.595703
0.593872
0.592346
0.591125
0.5896
0.588379
0.586548
0.585632
0.583496
0.58136
0.580444
0.578613
0.576477
0.574951
0.574036
0.571594
0.570374
0.569153
0.567322
0.565491
0.56366
0.562744
0.560608
0.559387
0.557861
0.55603
0.554504
0.552979
0.550537
0.549622
0.547485
0.545349
0.543823
0.542603
0.541382
0.540161
0.53833
0.536194
0.534973
0.533752
0.531311
0.531006
0.528564
0.528259
0.526428
0.524292
0.522766
0.521545
0.52002
0.517883
0.516357
0.515137
0.513916
0.51178
0.509949
0.508423
0.506897
0.505371
0.50354
0.502319
0.500793
0.499268
0.498047
0.495911
0.494995
0.492554
0.491943
0.490112
0.488892
0.486755
0.485535
0.484314
0.482483
0.480347
0.479736
0.477905
0.476074
0.474548
0.472717
0.471497
0.469971
0.468445
0.466309
0.465393
0.464172
0.462341
0.461121
0.459595
0.457458
0.457153
0.454712
0.453491
0.45166
0.450439
0.449219
0.447998
0.446472
0.444946
0.443115
0.441895
0.440979
0.438843
0.437927
0.436707
0.43457
0.433655
0.432129
0.430908
0.429993
0.428467
0.427551
0.42572
0.423889
0.422974
0.422058
0.420227
0.418396
0.41748
0.41626
0.414429
0.414124
0.413208
0.411987
0.411072
0.409546
0.40802
0.407104
0.405579
0.403748
0.403137
0.402222
0.400391
0.39917
0.397644
0.397644
0.395813
0.394897
0.393677
0.392456
0.391846
0.391235
0.389709
0.388489
0.387878
0.387268
0.386047
0.385132
0.383606
0.38269
0.382385
0.381165
0.380859
0.379028
0.378418
0.377197
0.376587
0.375366
0.374146
0.37384
0.37262
0.372925
0.371094
0.370789
0.369873
0.368042
0.368042
0.367126
0.366211
0.365906
0.364685
0.36377
0.362244
0.361633
0.361633
0.359802
0.358887
0.358582
0.357666
0.357361
0.35675
0.355835
0.354919
0.354004
0.353699
0.353394
0.352478
0.351562
0.351562
0.350342
0.350037
0.349121
0.349121
0.348511
0.3479
0.34729
0.346375
0.346069
0.345764
0.344543
0.344543
0.344543
0.344543
0.343323
0.343018
0.343018
0.342407
0.341797
0.340576
0.339966
0.339661
0.33905
0.338135
0.33844
0.337524
0.337219
0.336304
0.336304
0.335388
0.335388
0.334778
0.334473
0.334473
0.333252
0.333252
0.332947
0.332642
0.332031
0.331421
0.331116
0.330811
0.329895
0.329895
0.3302
0.328979
0.328674
0.328979
0.328369
0.328369
0.328064
0.326843
0.326538
0.326233
0.326233
0.325928
0.326233
0.325012
0.325012
0.324707
0.324402
0.324402
0.324097
0.323792
0.323486
0.323486
0.322571
0.323181
0.322266
0.322571
0.322571
0.322876
0.32135
0.32196
0.321655
0.320435
0.32074
0.32074
0.32074
0.320129
0.319824
0.319519
0.319214
0.318909
0.318909
0.318298
0.318909
0.318604
0.318298
0.317688
0.317383
0.317993
0.317993
0.316772
0.317383
0.317383
0.317078
0.316467
0.315857
0.316467
0.315857
0.315857
0.315552
0.314941
0.314941
0.314636
0.314331
0.314026
0.314026
0.314331
0.314636
0.313721
0.314026
0.313721
0.31311
0.313416
0.313721
0.312805
0.312805
0.3125
0.31189
0.311584
0.311584
0.311584
0.311584
0.310974
0.310364
0.310059
0.310059
0.309448
0.309448
0.309143
0.309448
0.309143
0.308838
0.308838
0.308228
0.308228
0.308533
0.307922
0.307312
0.307312
0.307007
0.306396
0.306396
0.306091
0.306702
0.305176
0.306396
0.305481
0.305786
0.304871
0.306396
0.305481
0.306091
0.305481
0.305481
0.305786
0.305481
0.305481
0.305786
0.304871
0.304871
0.305176
0.305481
0.30426
0.305481
0.304871
0.305176
0.304565
0.304871
0.304871
0.304871
0.305176
0.305176
0.305786
0.304565
0.305481
0.305481
0.305786
0.305481
0.306091
0.305176
0.304871
0.305481
0.305786
0.305786
0.305481
0.306091
0.305786
0.306091
0.306091
0.305786
0.306091
0.306091
0.306702
0.306396
0.307007
0.307007
0.307617
0.307312
0.307312
0.307922
0.307007
0.307312
0.307922
0.307617
0.307617
0.307922
0.307617
0.307922
0.308533
0.308533
0.308533
0.308838
0.308533
0.308228
0.308228
0.308838
0.308533
0.308533
0.308228
0.308228
0.309143
0.308838
0.308533
0.308838
0.308533
0.308228
0.308228
0.308228
0.308228
0.308838
0.308228
0.308533
0.308533
0.308228
0.308533
0.308533
0.307922
0.307922
0.308228
0.308838
0.308228
0.308838
0.309143
0.307922
0.309753
0.310059
0.309448
0.310059
0.310364
0.310974
0.310974
0.310669
0.31189
0.311584
0.31189
0.312195
0.3125
0.3125
0.31311
0.312805
0.313721
0.313721
0.313416
0.315247
0.314941
0.314941
0.314941
0.315247
0.316162
0.316162
0.316467
0.317383
0.317383
0.317383
0.317993
0.318909
0.318298
0.317993
0.317993
0.319214
0.319519
0.319519
0.319519
0.319824
0.320129
0.320435
0.320129
0.321655
0.321045
0.321655
0.322571
0.32196
0.32196
0.322876
0.323486
0.322876
0.323486
0.323181
0.324707
0.324402
0.324402
0.324402
0.324707
0.325317
0.325623
0.325623
0.325623
0.326538
0.327148
0.327759
0.327759
0.327759
0.328674
0.328979
0.329285
0.32959
0.32959
0.329895
0.329895
0.330811
0.330811
0.330811
0.331421
0.332336
0.331421
0.332947
0.333557
0.332947
0.333862
0.333862
0.334473
0.334167
0.334473
0.334778
0.335388
0.336304
0.335999
0.336609
0.335693
0.335999
0.336914
0.336914
0.337219
0.337219
0.33783
0.337524
0.337524
0.33783
0.33844
0.33844
0.33844
0.33844
0.33905
0.339355
0.33905
0.339661
0.339966
0.340576
0.340271
0.340576
0.340576
0.340881
0.340881
0.341797
0.341797
0.342102
0.342407
0.342712
0.343323
0.344543
0.344849
0.344543
0.346069
0.346985
0.348206
0.348206
0.348816
0.350342
0.350342
0.351868
0.352783
0.353088
0.354614
0.35553
0.35675
0.357971
0.359497
0.361023
0.362549
0.362549
0.36499
0.366516
0.367432
0.369568
0.371399
0.37323
0.375671
0.376892
0.379333
0.38147
0.383301
0.386353
0.388489
0.391541
0.394897
0.397949
0.401917
0.405884
0.409546
0.415039
0.419617
0.424805
0.429382
0.435791
0.440979
0.447083
0.453796
0.461426
0.467529
0.474854
0.481567
0.488892
0.496826
0.504456
0.512695
0.52063
0.52948
0.538025
0.546875
0.55542
0.56427
0.573425
0.58136
0.590515
0.59967
0.608521
0.617065
0.62561
0.634766
0.643005
0.65155
0.660095
0.66864
0.676575
0.684814
0.692749
0.701294
0.708923
0.716248
0.724182
0.731201
0.738831
0.745239
0.752258
0.758057
0.765381
0.77179
0.777283
0.784607
0.789185
0.794983
0.800476
0.805969
0.810852
0.81604
0.821228
0.826416
0.829163
0.83374
0.838318
0.842285
0.846252
0.850525
0.853271
0.856934
0.860596
0.862732
0.865479
0.868835
0.870972
0.873718
0.875854
0.878296
0.880432
0.882263
0.884399
0.886536
0.888977
0.890503
0.891418
0.893555
0.894775
0.896912
0.897522
0.898438
0.899353
0.900574
0.901184
0.901794
0.90271
0.90332
0.903625
0.904541
0.904846
0.905457
0.905457
0.905457
0.905762
0.905151
0.905762
0.905762
0.906067
0.906067
0.905457
0.905151
0.905457
0.905457
0.904846
0.905457
0.904236
0.903931
0.903931
0.90332
0.9021
0.902405
0.901489
0.900879
0.900879
0.899658
0.899353
0.898743
0.898132
0.897522
0.896912
0.896606
0.895996
0.895081
0.894775
0.89386
0.892944
0.892944
0.891724
0.890808
0.889893
0.889893
0.889893
0.889587
0.888672
0.887146
0.887451
0.886841
0.885925
0.88501
0.884705
0.883789
0.883789
0.882874
0.881653
0.882263
0.881042
0.880127
0.880127
0.879517
0.878906
0.878296
0.878296
0.877686
0.87738
0.87616
0.875549
0.875244
0.875244
0.874329
0.873108
0.873108
0.872192
0.871582
0.870972
0.870667
0.869446
0.869446
0.868225
0.867615
0.86731
0.867004
0.866394
0.865784
0.864258
0.864258
0.863342
0.863342
0.861816
0.861511
0.860596
0.860596
0.85968
0.858765
0.857849
0.856628
0.856018
0.855408
0.854492
0.852966
0.852051
0.851746
0.851135
0.85022
0.848389
0.847778
0.846863
0.845337
0.845337
0.843506
0.84198
0.841064
0.840454
0.838623
0.837708
0.836792
0.834961
0.83313
0.83252
0.830383
0.829163
0.827637
0.826111
0.824585
0.823364
0.822449
0.820007
0.817261
0.81665
0.814819
0.812378
0.812073
0.809937
0.807495
0.80658
0.804138
0.802307
0.800476
0.798035
0.796814
0.794678
0.792542
0.79071
0.789185
0.787354
0.784912
0.782776
0.78125
0.780334
0.777588
0.775452
0.773926
0.77179
0.769653
0.767517
0.765991
0.76416
0.761719
0.758972
0.757446
0.755005
0.753479
0.751343
0.749817
0.747986
0.74585
0.743713
0.741577
0.740662
0.73822
0.736084
0.734253
0.733337
0.730896
0.72876
0.726929
0.725403
0.723877
0.721741
0.72052
0.718384
0.717773
0.715027
0.713806
0.713196
0.710449
0.710144
0.708618
0.706177
0.705261
0.703735
0.701904
0.700989
0.700073
0.699463
0.697327
0.696716
0.69519
0.694275
0.69397
0.693054
0.691223
0.690613
0.689697
0.688782
0.687866
0.686951
0.686646
0.68634
0.684814
0.684814
0.684204
0.682678
0.682373
0.681763
0.681458
0.680542
0.680237
0.679932
0.679016
0.679016
0.678711
0.678101
0.678101
0.67749
0.676575
0.675964
0.675354
0.675659
0.674744
0.674744
0.674133
0.673828
0.672607
0.672913
0.672607
0.671082
0.671692
0.670776
0.670776
0.669556
0.66864
0.668945
0.667725
0.667419
0.666809
0.666504
0.665894
0.664978
0.664673
0.663757
0.663452
0.662842
0.662842
0.662231
0.662231
0.660706
0.661011
0.659485
0.65979
0.659485
0.658264
0.656738
0.656433
0.656433
0.655823
0.655212
0.653992
0.654297
0.653687
0.653381
0.65155
0.65094
0.649719
0.650024
0.648499
0.647888
0.646667
0.646362
0.645142
0.643921
0.643311
0.6427
0.64209
0.640869
0.640259
0.639038
0.638428
0.637817
0.636597
0.635986
0.635681
0.634155
0.63324
0.632935
0.631104
0.630188
0.628967
0.627747
0.627136
0.625916
0.62561
0.62439
0.623169
0.622253
0.621338
0.620422
0.619202
0.617981
0.61676
0.615845
0.614929
0.612488
0.612183
0.609131
0.608826
0.60791
0.605469
0.604248
0.602722
0.600891
0.59967
0.59845
0.596008
0.594788
0.594177
0.592346
0.59082
0.5896
0.587463
0.585938
0.584717
0.582886
0.581055
0.579834
0.578308
0.576782
0.574951
0.574036
0.571899
0.569763
0.567627
0.567017
0.565796
0.563965
0.562439
0.560608
0.558777
0.556946
0.55542
0.553589
0.552063
0.550537
0.548401
0.547485
0.545654
0.543823
0.542908
0.540161
0.539246
0.53772
0.535889
0.534058
0.532837
0.530701
0.52948
0.528259
0.526428
0.524902
0.523376
0.521545
0.520325
0.518799
0.517578
0.516052
0.514221
0.512695
0.511169
0.509644
0.507812
0.506592
0.505981
0.504456
0.50293
0.501404
0.500183
0.499268
0.497742
0.496521
0.494385
0.493774
0.491943
0.491028
0.489502
0.488586
0.487061
0.484924
0.484009
0.483093
0.480957
0.480042
0.479126
0.477295
0.476379
0.475464
0.474243
0.472717
0.472107
0.470886
0.469971
0.46875
0.467834
0.466614
0.465698
0.464172
0.463257
0.462036
0.460815
0.459595
0.458984
0.456848
0.456848
0.455933
0.455017
0.454407
0.453796
0.452576
0.451965
0.45105
0.449524
0.448914
0.448303
0.446777
0.445862
0.445251
0.444641
0.442505
0.441589
0.440979
0.440369
0.438843
0.437927
0.437317
0.435791
0.435486
0.434265
0.432739
0.431519
0.430298
0.430298
0.428162
0.427246
0.426025
0.42572
0.423889
0.422974
0.422058
0.420532
0.420532
0.419006
0.418091
0.417175
0.41687
0.415955
0.414734
0.413513
0.412903
0.411987
0.411072
0.410156
0.40863
0.40802
0.40741
0.406189
0.405579
0.404053
0.403748
0.402527
0.402222
0.401306
0.400391
0.39917
0.39856
0.397949
0.396423
0.396423
0.396118
0.394897
0.394287
0.393982
0.393066
0.391846
0.391846
0.39093
0.389709
0.389404
0.388184
0.387878
0.386353
0.386353
0.386047
0.384827
0.383911
0.383911
0.382996
0.38147
0.38147
0.380554
0.380249
0.379944
0.378723
0.377808
0.377197
0.376587
0.376282
0.374756
0.375061
0.373535
0.373535
0.372314
0.372314
0.371399
0.370178
0.369873
0.369568
0.369263
0.368958
0.367737
0.368347
0.366821
0.367432
0.365295
0.365295
0.365295
0.364075
0.362854
0.363464
0.362244
0.361938
0.361633
0.361023
0.360718
