0.134735
0.138855
0.142517
0.146332
0.149689
0.153503
0.157166
0.160828
0.16449
0.168762
0.173035
0.177917
0.183258
0.189209
0.194397
0.2005
0.205841
0.210876
0.216064
0.221405
0.225983
0.230713
0.234985
0.2388
0.242615
0.246735
0.250854
0.254517
0.258179
0.262146
0.266266
0.269775
0.274353
0.278625
0.282745
0.286407
0.289612
0.293274
0.295715
0.297852
0.299835
0.301056
0.302124
0.302277
0.302277
0.302124
0.301666
0.301056
0.29953
0.299225
0.298309
0.297394
0.296631
0.296173
0.295715
0.294495
0.292511
0.290527
0.287476
0.284271
0.280762
0.276184
0.270538
0.264435
0.257416
0.250244
0.24231
0.234222
0.226135
0.217285
0.208282
0.198822
0.190125
0.181122
0.171051
0.160828
0.149994
0.138855
0.127106
0.114746
0.102234
0.0892639
0.0759888
0.062561
0.0486755
0.0358582
0.0222778
0.00915527
-0.00366211
-0.0157166
-0.0274658
-0.0387573
-0.0485229
-0.0584412
-0.0675964
-0.0770569
-0.0856018
-0.0942993
-0.102692
-0.111084
-0.118713
-0.126801
-0.134888
-0.143127
-0.150757
-0.158234
-0.165253
-0.172119
-0.178223
-0.183716
-0.188751
-0.193481
-0.196686
-0.199585
-0.202026
-0.20462
-0.206909
-0.209045
-0.210876
-0.21286
-0.214844
-0.216675
-0.218811
-0.22049
-0.222626
-0.224457
-0.22583
-0.226898
-0.227509
-0.227814
-0.228424
-0.227966
-0.227203
-0.225983
-0.224915
-0.223236
-0.222015
-0.220795
-0.219879
-0.218506
-0.218048
-0.216827
-0.216675
-0.216522
-0.216675
-0.216675
-0.21637
-0.216064
-0.215607
-0.214996
-0.213776
-0.211792
-0.209808
-0.20752
-0.205231
-0.202942
-0.200348
-0.198669
-0.196533
-0.194855
-0.193329
-0.192108
-0.19104
-0.190582
-0.189819
-0.189667
-0.188446
-0.187836
-0.187378
-0.18631
-0.185394
-0.184326
-0.181885
-0.180054
-0.177917
-0.175934
-0.17395
-0.172424
-0.170898
-0.169525
-0.16861
-0.167389
-0.166931
-0.166779
-0.166473
-0.166016
-0.165405
-0.164948
-0.164337
-0.163116
-0.162048
-0.160217
-0.158386
-0.156097
-0.153503
-0.151367
-0.149078
-0.1474
-0.145569
-0.14389
-0.14267
-0.141449
-0.140686
-0.140228
-0.139618
-0.139465
-0.139313
-0.138855
-0.137939
-0.137177
-0.136108
-0.134888
-0.132599
-0.130768
-0.128632
-0.126343
-0.124512
-0.122528
-0.120544
-0.119019
-0.117188
-0.116119
-0.115204
-0.115051
-0.114441
-0.113831
-0.113525
-0.112915
-0.11261
-0.111237
-0.110321
-0.108795
-0.106964
-0.104828
-0.102844
-0.100861
-0.0999451
-0.098114
-0.0971985
-0.0961304
-0.0952148
-0.0944519
-0.0942993
-0.0946045
-0.0949097
-0.0950623
-0.0946045
-0.0946045
-0.0942993
-0.093689
-0.092926
-0.0915527
-0.0901794
-0.0880432
-0.0860596
-0.0843811
-0.0822449
-0.0810242
-0.0798035
-0.0782776
-0.0770569
-0.0762939
-0.0762939
-0.0761414
-0.0764465
-0.0761414
-0.0761414
-0.0761414
-0.0758362
-0.0758362
-0.0749207
-0.0738525
-0.0724792
-0.0704956
-0.0682068
-0.0666809
-0.065155
-0.0636292
-0.062561
-0.0616455
-0.0605774
-0.0601196
-0.0596619
-0.059967
-0.06073
-0.0610352
-0.0616455
-0.0621033
-0.0627136
-0.0630188
-0.0630188
-0.0631714
-0.0627136
-0.0617981
-0.0610352
-0.0602722
-0.0596619
-0.0588989
-0.0582886
-0.058136
-0.0575256
-0.057373
-0.0578308
-0.0584412
-0.0590515
-0.0593567
-0.0593567
-0.0598145
-0.0601196
-0.0596619
-0.0593567
-0.0582886
-0.057373
-0.0558472
-0.0544739
-0.0531006
-0.0523376
-0.0520325
-0.0512695
-0.0514221
-0.0511169
-0.0517273
-0.0523376
-0.0534058
-0.0541687
-0.0547791
-0.0559998
-0.0569153
-0.0575256
-0.0579834
-0.058136
-0.0579834
-0.0572205
-0.0563049
-0.0553894
-0.0544739
-0.0538635
-0.0531006
-0.052948
-0.052948
-0.052948
-0.0531006
-0.0538635
-0.0552368
-0.0563049
-0.0570679
-0.0582886
-0.0596619
-0.0601196
-0.06073
-0.0613403
-0.0613403
-0.0610352
-0.059967
-0.0590515
-0.0584412
-0.057373
-0.0572205
-0.0569153
-0.0569153
-0.0570679
-0.0570679
-0.0576782
-0.0584412
-0.0595093
-0.059967
-0.0610352
-0.0616455
-0.0617981
-0.0624084
-0.062561
-0.0621033
-0.0610352
-0.0595093
-0.0582886
-0.0570679
-0.0564575
-0.0558472
-0.0552368
-0.0546265
-0.0543213
-0.0543213
-0.0543213
-0.0549316
-0.0552368
-0.0559998
-0.0563049
-0.0567627
-0.0567627
-0.0564575
-0.0569153
-0.0558472
-0.0546265
-0.052948
-0.0515747
-0.050354
-0.0492859
-0.0485229
-0.04776
-0.0469971
-0.0468445
-0.0471497
-0.0473022
-0.0480652
-0.0486755
-0.0492859
-0.050354
-0.0509644
-0.0523376
-0.0527954
-0.0531006
-0.0532532
-0.0527954
-0.0517273
-0.0509644
-0.0500488
-0.0494385
-0.0488281
-0.0482178
-0.0476074
-0.0476074
-0.0474548
-0.0479126
-0.0486755
-0.0492859
-0.0498962
-0.050354
-0.0508118
-0.0506592
-0.0511169
-0.0508118
-0.050354
-0.0494385
-0.0482178
-0.0469971
-0.0465393
-0.0454712
-0.045166
-0.0447083
-0.0447083
-0.0444031
-0.0447083
-0.0448608
-0.0462341
-0.0466919
-0.0474548
-0.0480652
-0.0483704
-0.0488281
-0.0486755
-0.0486755
-0.0479126
-0.0463867
-0.0448608
-0.0437927
-0.0422668
-0.0410461
-0.0398254
-0.0389099
-0.038147
-0.038147
-0.038147
-0.0386047
-0.0390625
-0.0398254
-0.0402832
-0.0411987
-0.0415039
-0.0421143
-0.042572
-0.0421143
-0.0419617
-0.0410461
-0.0396729
-0.0387573
-0.038147
-0.0370789
-0.0366211
-0.0363159
-0.035553
-0.0350952
-0.0354004
-0.0358582
-0.0363159
-0.0364685
-0.0375366
-0.0375366
-0.0384521
-0.0386047
-0.0382996
-0.0386047
-0.0384521
-0.0375366
-0.0361633
-0.0354004
-0.0343323
-0.0332642
-0.0325012
-0.0318909
-0.0320435
-0.0312805
-0.0312805
-0.0317383
-0.0325012
-0.032959
-0.0338745
-0.0341797
-0.0346375
-0.0349426
-0.0349426
-0.0349426
-0.0338745
-0.032959
-0.0320435
-0.0305176
-0.0294495
-0.0289917
-0.0280762
-0.0274658
-0.0273132
-0.0267029
-0.0267029
-0.0271606
-0.027771
-0.0285339
-0.0291443
-0.0292969
-0.0292969
-0.0294495
-0.0289917
-0.0289917
-0.027771
-0.0262451
-0.0245667
-0.0231934
-0.0215149
-0.0201416
-0.0186157
-0.0178528
-0.0169373
-0.0160217
-0.0160217
-0.0166321
-0.0172424
-0.0180054
-0.0186157
-0.0196838
-0.0204468
-0.0210571
-0.0216675
-0.0218201
-0.0218201
-0.0212097
-0.0202942
-0.0195312
-0.0186157
-0.0183105
-0.0180054
-0.0175476
-0.0170898
-0.017395
-0.0167847
-0.0175476
-0.0183105
-0.0186157
-0.0190735
-0.0201416
-0.0209045
-0.0213623
-0.0213623
-0.0215149
-0.0212097
-0.019989
-0.0187683
-0.0177002
-0.0164795
-0.0152588
-0.0146484
-0.0138855
-0.0135803
-0.0128174
-0.0131226
-0.0135803
-0.0140381
-0.0149536
-0.0152588
-0.0157166
-0.0161743
-0.0164795
-0.0166321
-0.0167847
-0.0161743
-0.0157166
-0.0143433
-0.0135803
-0.0126648
-0.0117493
-0.0111389
-0.0106812
-0.010376
-0.0102234
-0.010376
-0.0108337
-0.0115967
-0.0125122
-0.0134277
-0.0140381
-0.014801
-0.0151062
-0.015564
-0.0160217
-0.0157166
-0.0152588
-0.0143433
-0.0135803
-0.0128174
-0.0123596
-0.0119019
-0.0119019
-0.0114441
-0.0115967
-0.0114441
-0.0119019
-0.0126648
-0.0132751
-0.0135803
-0.0138855
-0.0143433
-0.0138855
-0.0134277
-0.01297
-0.0117493
-0.0102234
-0.00808716
-0.0062561
-0.00457764
-0.00289917
-0.00152588
0.000152588
0.0012207
0.00244141
0.00320435
0.0038147
0.00427246
0.0050354
0.00579834
0.00701904
0.00839233
0.0100708
0.0117493
0.0141907
0.0170898
0.0204468
0.0241089
0.0280762
0.0314331
0.0354004
0.0389099
0.0405884
0.043335
0.045166
0.0457764
0.045929
0.045166
0.0431824
0.0418091
0.0398254
0.0372314
0.0352478
0.0326538
0.030365
0.0283813
0.0263977
0.0250244
0.0233459
0.0219727
0.0205994
0.0198364
0.0196838
0.0201416
0.0212097
0.022583
0.0245667
0.0265503
0.0291443
0.0318909
0.0350952
0.038147
0.0408936
0.0442505
0.0476074
0.0515747
0.0550842
0.0585938
0.0614929
0.0637817
0.0648499
0.0646973
0.0640869
0.0619507
0.0587463
0.0543213
0.0494385
0.043335
0.0369263
0.0302124
0.0233459
0.0161743
0.00915527
0.00289917
-0.00335693
-0.00900269
-0.0137329
-0.0186157
-0.0228882
-0.0271606
-0.0306702
-0.0346375
-0.0386047
-0.0415039
-0.0445557
-0.0476074
-0.050354
-0.0532532
-0.0559998
-0.0582886
-0.0601196
-0.0619507
-0.0630188
-0.0637817
-0.0639343
-0.0634766
-0.0622559
-0.06073
-0.0590515
-0.057373
-0.0556946
-0.0544739
-0.0534058
-0.0523376
-0.0509644
-0.0502014
-0.0498962
-0.0500488
-0.0500488
-0.050354
-0.0508118
-0.0509644
-0.0505066
-0.050354
-0.0500488
-0.0489807
-0.0476074
-0.0463867
-0.0444031
-0.0430298
-0.0421143
-0.0410461
-0.0401306
-0.0392151
-0.0382996
-0.0378418
-0.0378418
-0.0375366
-0.0370789
-0.0369263
-0.0366211
-0.0363159
-0.0354004
-0.0344849
-0.0332642
-0.0315857
-0.0291443
-0.0270081
-0.025177
-0.0231934
-0.0215149
-0.0198364
-0.0189209
-0.0183105
-0.0175476
-0.0166321
-0.0166321
-0.0160217
-0.0144958
-0.0119019
-0.00869751
-0.00427246
0.00152588
0.00900269
0.0177002
0.0292969
0.0427246
0.0598145
0.0793457
0.102844
0.130157
0.161591
0.198059
0.239563
0.28656
0.33905
0.396423
0.459137
0.527191
0.599976
0.676727
0.756989
0.840454
0.926819
1.01501
1.10443
1.1937
1.28113
1.3649
1.44226
1.51123
1.56952
1.61621
1.64902
1.66687
1.66916
1.65543
1.62552
1.58051
1.52054
1.44684
1.36078
1.26297
1.15555
1.0408
0.919495
0.795898
0.670166
0.545654
0.423279
0.305176
0.194092
0.0907898
-0.00305176
-0.0865173
-0.159302
-0.2211
-0.271454
-0.310516
-0.338745
-0.356445
-0.366211
-0.3685
-0.363922
-0.354462
-0.340729
-0.323944
-0.305634
-0.28717
-0.268555
-0.251465
-0.235291
-0.22171
-0.209961
-0.2005
-0.193329
-0.187836
-0.184479
-0.182495
-0.181885
-0.182343
-0.183411
-0.184784
-0.18631
-0.187988
-0.189209
-0.19043
-0.190582
-0.19165
-0.191803
-0.192108
-0.192413
-0.191956
-0.191803
-0.191498
-0.191498
-0.191345
-0.190735
-0.190277
-0.189667
-0.188599
-0.187225
-0.185852
-0.183563
-0.181274
-0.178833
-0.175476
-0.171814
-0.167999
-0.164795
-0.161591
-0.158539
-0.155487
-0.152588
-0.150146
-0.147552
-0.145569
-0.144501
-0.14267
-0.141602
-0.139923
-0.13916
-0.137482
-0.135956
-0.133972
-0.132141
-0.129089
-0.126343
-0.123444
-0.121155
-0.118408
-0.115662
-0.113678
-0.111542
-0.109558
-0.10788
-0.106506
-0.105591
-0.104675
-0.10376
-0.102997
-0.101929
-0.100555
-0.0993347
-0.0979614
-0.0964355
-0.0942993
-0.0917053
-0.0894165
-0.0872803
-0.0852966
-0.0834656
-0.0817871
-0.0801086
-0.0785828
-0.0775146
-0.0764465
-0.0756836
-0.0744629
-0.0735474
-0.0721741
-0.0709534
-0.0691223
-0.0671387
-0.0648499
-0.0621033
-0.0592041
-0.0558472
-0.0527954
-0.0500488
-0.0469971
-0.0447083
-0.042572
-0.040741
-0.0389099
-0.0379944
-0.0370789
-0.0364685
-0.0358582
-0.035553
-0.0349426
-0.0340271
-0.0331116
-0.0320435
-0.030365
-0.0282288
-0.0254822
-0.0228882
-0.0196838
-0.0164795
-0.0132751
-0.0106812
-0.00808716
-0.00473022
-0.00213623
0.000305176
0.00167847
0.00366211
0.00518799
0.00671387
0.00823975
0.0100708
0.0119019
0.0135803
0.0160217
0.0186157
0.0216675
0.0247192
0.027771
0.0308228
0.0338745
0.0366211
0.0395203
0.0421143
0.0450134
0.0474548
0.0497437
0.0520325
0.0544739
0.0570679
0.0596619
0.062561
0.0654602
0.0692749
0.0730896
0.0773621
0.0819397
0.0869751
0.0921631
0.0968933
0.101318
0.105896
0.110321
0.113983
0.117798
0.121307
0.124664
0.127869
0.131073
0.13382
0.137482
0.141296
0.145264
0.149384
0.153809
0.158691
0.164337
0.169983
0.175781
0.181732
0.187225
0.193329
0.198517
0.203857
0.209045
0.214233
0.218811
0.223236
0.227509
0.231476
0.235443
0.239868
0.244293
0.248718
0.253754
0.258789
0.26413
0.269775
0.275269
0.279999
0.284882
0.289307
0.293427
0.297089
0.300751
0.303192
0.305481
0.307465
0.30899
0.310822
0.312347
0.313263
0.314789
0.316162
0.317535
0.319061
0.32074
0.322266
0.323486
0.323944
0.324097
0.324249
0.323639
0.322113
0.320282
0.317841
0.314636
0.310516
0.305939
0.301208
0.295868
0.289764
0.283356
0.276947
0.270081
0.263367
0.256653
0.249329
0.241852
0.232849
0.224304
0.214539
0.203857
0.192871
0.18158
0.169373
0.156708
0.143738
0.130463
0.117188
0.103912
0.0906372
0.0773621
0.0643921
0.0518799
0.0396729
0.0282288
0.0167847
0.00564575
-0.00579834
-0.0170898
-0.027771
-0.0384521
-0.0495911
-0.0596619
-0.0698853
-0.0804138
-0.0907898
-0.100555
-0.109558
-0.118713
-0.126953
-0.134888
-0.142059
-0.148926
-0.154724
-0.15976
-0.164032
-0.16861
-0.172119
-0.176086
-0.179443
-0.183105
-0.186615
-0.189972
-0.193481
-0.196838
-0.200348
-0.20401
-0.207367
-0.210114
-0.21286
-0.215149
-0.216522
-0.217896
-0.218201
-0.218048
-0.217743
-0.21698
-0.21637
-0.216064
-0.215149
-0.214691
-0.214539
-0.214386
-0.214539
-0.214844
-0.215454
-0.215607
-0.216217
-0.216522
-0.216522
-0.21637
-0.216064
-0.215759
-0.214691
-0.212708
-0.210876
-0.209351
-0.207825
-0.206451
-0.204773
-0.203552
-0.202179
-0.200806
-0.200195
-0.199432
-0.19928
-0.199432
-0.199127
-0.198517
-0.197906
-0.198059
-0.196838
-0.195923
-0.19455
-0.192719
-0.19043
-0.188293
-0.186157
-0.184021
-0.18219
-0.180206
-0.178833
-0.177307
-0.175934
-0.174866
-0.174713
-0.173492
-0.172882
-0.171814
-0.170898
-0.170135
-0.168457
-0.167236
-0.165558
-0.163422
-0.161438
-0.158844
-0.157013
-0.155182
-0.153656
-0.151825
-0.150452
-0.149231
-0.148468
-0.14801
-0.1474
-0.147247
-0.146942
-0.146179
-0.145264
-0.144043
-0.142822
-0.141449
-0.139008
-0.137024
-0.134125
-0.131683
-0.129395
-0.126801
-0.125122
-0.123596
-0.121613
-0.120697
-0.119476
-0.119171
-0.119019
-0.118866
-0.118866
-0.118713
-0.118408
-0.118256
-0.117645
-0.117035
-0.115814
-0.114441
-0.112457
-0.110626
-0.108948
-0.107727
-0.106354
-0.105591
-0.104675
-0.103455
-0.102844
-0.102692
-0.102386
-0.102539
-0.101776
-0.101776
-0.101471
-0.101166
-0.100555
-0.0993347
-0.0984192
-0.0965881
-0.0946045
-0.0927734
-0.091095
-0.0897217
-0.0881958
-0.0874329
-0.0860596
-0.0849915
-0.0842285
-0.0837708
-0.0836182
-0.0836182
-0.0830078
-0.08255
-0.0822449
-0.0810242
-0.0799561
-0.0784302
-0.0767517
-0.0746155
-0.0724792
-0.0701904
-0.0682068
-0.0662231
-0.0650024
-0.0636292
-0.0628662
-0.0619507
-0.0613403
-0.0617981
-0.0621033
-0.062561
-0.0630188
-0.063324
-0.063324
-0.0636292
-0.0639343
-0.0637817
-0.0628662
-0.0619507
-0.0604248
-0.0590515
-0.058136
-0.0572205
-0.0567627
-0.0561523
-0.0556946
-0.055542
-0.055542
-0.0561523
-0.0567627
-0.0578308
-0.0579834
-0.0582886
-0.0590515
-0.0590515
-0.0588989
-0.0582886
-0.0575256
-0.0561523
-0.0546265
-0.0537109
-0.0526428
-0.0518799
-0.0506592
-0.0505066
-0.0500488
-0.0498962
-0.0502014
-0.0508118
-0.0515747
-0.0524902
-0.0534058
-0.0546265
-0.0556946
-0.0564575
-0.0569153
-0.0569153
-0.0567627
-0.0561523
-0.0547791
-0.0540161
-0.0532532
-0.0531006
-0.0521851
-0.0520325
-0.0521851
-0.0521851
-0.0524902
-0.0532532
-0.0537109
-0.0549316
-0.055542
-0.0564575
-0.057373
-0.0582886
-0.0592041
-0.0593567
-0.0590515
-0.058136
-0.0575256
-0.0566101
-0.0556946
-0.0550842
-0.0550842
-0.0550842
-0.0547791
-0.0549316
-0.0552368
-0.0558472
-0.0570679
-0.0578308
-0.0579834
-0.0582886
-0.058136
-0.0584412
-0.0585938
-0.0579834
-0.057373
-0.0558472
-0.0543213
-0.0531006
-0.0517273
-0.050354
-0.0494385
-0.0489807
-0.0483704
-0.0476074
-0.0476074
-0.0483704
-0.0488281
-0.0497437
-0.0497437
-0.0506592
-0.0514221
-0.0512695
-0.0514221
-0.0512695
-0.0506592
-0.0497437
-0.0483704
-0.0471497
-0.0463867
-0.045929
-0.0453186
-0.0445557
-0.0445557
-0.0445557
-0.0450134
-0.0460815
-0.0466919
-0.0474548
-0.0483704
-0.0486755
-0.0491333
-0.0492859
-0.0489807
-0.0483704
-0.0474548
-0.045929
-0.0442505
-0.0427246
-0.040741
-0.0402832
-0.0390625
-0.038147
-0.0372314
-0.0369263
-0.0367737
-0.0369263
-0.037384
-0.0382996
-0.0387573
-0.0396729
-0.040741
-0.0410461
-0.0416565
-0.0427246
-0.0422668
-0.0419617
-0.0410461
-0.0405884
-0.0404358
-0.0398254
-0.0396729
-0.0392151
-0.0387573
-0.0387573
-0.0384521
-0.0387573
-0.0393677
-0.0396729
-0.0393677
-0.0396729
-0.0395203
-0.0393677
-0.0386047
-0.0379944
-0.0364685
-0.0350952
-0.0331116
-0.0314331
-0.0305176
-0.0292969
-0.0288391
-0.0282288
-0.027771
-0.0279236
-0.0286865
-0.0294495
-0.0306702
-0.0318909
-0.0326538
-0.0338745
-0.0341797
-0.0349426
-0.0357056
-0.0354004
-0.0350952
-0.0337219
-0.0325012
-0.0312805
-0.0302124
-0.0289917
-0.0283813
-0.0274658
-0.0274658
-0.0268555
-0.0268555
-0.0274658
-0.0283813
-0.0289917
-0.0300598
-0.0306702
-0.0317383
-0.0318909
-0.0326538
-0.0326538
-0.0323486
-0.0314331
-0.0306702
-0.0299072
-0.0289917
-0.0280762
-0.027771
-0.0271606
-0.0268555
-0.0268555
-0.0265503
-0.0270081
-0.0274658
-0.0282288
-0.0285339
-0.0289917
-0.0296021
-0.0292969
-0.0297546
-0.0292969
-0.0285339
-0.0273132
-0.0265503
-0.0250244
-0.0244141
-0.0234985
-0.0230408
-0.0230408
-0.0227356
-0.0228882
-0.0236511
-0.0245667
-0.0254822
-0.0265503
-0.0274658
-0.0276184
-0.0283813
-0.0285339
-0.0283813
-0.0280762
-0.0268555
-0.0254822
-0.0238037
-0.0219727
-0.020752
-0.0193787
-0.0183105
-0.0178528
-0.0164795
-0.0161743
-0.0160217
-0.0164795
-0.017395
-0.0183105
-0.0187683
-0.0201416
-0.0210571
-0.0219727
-0.0227356
-0.0230408
-0.0228882
-0.022583
-0.0219727
-0.0218201
-0.0216675
-0.0216675
-0.0210571
-0.0212097
-0.0213623
-0.0209045
-0.0215149
-0.0219727
-0.0228882
-0.0230408
-0.0233459
-0.0234985
-0.0234985
-0.0228882
-0.0228882
-0.0222778
-0.0215149
-0.0201416
-0.0186157
-0.0177002
-0.0167847
-0.0157166
-0.0152588
-0.0146484
-0.014801
-0.0146484
-0.0152588
-0.0164795
-0.0172424
-0.018158
-0.0189209
-0.0198364
-0.020752
-0.020752
-0.0204468
-0.0209045
-0.0190735
-0.0180054
-0.0164795
-0.0151062
-0.0138855
-0.0128174
-0.0117493
-0.0108337
-0.010376
-0.0102234
-0.00991821
-0.010376
-0.0111389
-0.0114441
-0.0123596
-0.0132751
-0.0140381
-0.0146484
-0.0151062
-0.014801
-0.0143433
-0.0138855
-0.0126648
-0.0120544
-0.0111389
-0.010376
-0.00991821
-0.00930786
-0.00854492
-0.00823975
-0.00823975
-0.00823975
-0.0088501
-0.0088501
-0.00869751
-0.00869751
-0.00823975
-0.00793457
-0.00671387
-0.00595093
-0.0038147
-0.00167847
0.000457764
0.00274658
0.00488281
0.00717163
0.0088501
0.0102234
0.0125122
0.0137329
0.0152588
0.0163269
0.0175476
0.0189209
0.0205994
0.0222778
0.0238037
0.0262451
0.0280762
0.0306702
0.032959
0.0354004
0.0376892
0.0395203
0.040741
0.0415039
0.0418091
0.0419617
0.0411987
0.0402832
0.0389099
0.0369263
0.0341797
0.0317383
0.0294495
0.0276184
0.0256348
0.0250244
0.025177
0.0257874
0.0276184
0.0306702
0.0344849
0.0382996
0.0424194
0.0463867
0.0509644
0.0550842
0.0592041
0.0628662
0.0662231
0.0683594
0.0704956
0.0714111
0.0723267
0.0718689
0.0706482
0.0689697
0.065918
0.0627136
0.0592041
0.0552368
0.0506592
0.0456238
0.039978
0.0349426
0.0282288
0.0222778
0.0154114
0.00915527
0.00244141
-0.00411987
-0.0105286
-0.0164795
-0.0219727
-0.0273132
-0.032196
-0.0361633
-0.0393677
-0.042572
-0.0445557
-0.0456238
-0.0469971
-0.04776
-0.0486755
-0.0492859
-0.0502014
-0.0508118
-0.0511169
-0.0515747
-0.0523376
-0.0535583
-0.0543213
-0.0552368
-0.0558472
-0.0563049
-0.0564575
-0.0564575
-0.0566101
-0.0559998
-0.0549316
-0.0537109
-0.0527954
-0.0517273
-0.0506592
-0.0500488
-0.0491333
-0.0489807
-0.0488281
-0.0488281
-0.0492859
-0.0500488
-0.0509644
-0.0515747
-0.0526428
-0.052948
-0.0527954
-0.052948
-0.0524902
-0.0512695
-0.0492859
-0.0469971
-0.0447083
-0.042572
-0.0401306
-0.0386047
-0.0363159
-0.0344849
-0.0325012
-0.0311279
-0.0299072
-0.0292969
-0.0289917
-0.0283813
-0.0280762
-0.0274658
-0.0274658
-0.0271606
-0.0263977
-0.0262451
-0.0247192
-0.0234985
-0.0215149
-0.0190735
-0.0161743
-0.0120544
-0.00686646
-0.000610352
0.00686646
0.0161743
0.0267029
0.0389099
0.0526428
0.0698853
0.0901794
0.114746
0.143585
0.17807
0.217896
0.263519
0.315247
0.372467
0.436096
0.503082
0.574799
0.650787
0.730133
0.812073
0.897064
0.983124
1.06995
1.1557
1.23993
1.31943
1.39359
1.45874
1.51459
1.55807
1.58798
1.60294
1.60278
1.58569
1.55228
1.50284
1.43784
1.35818
1.26541
1.16074
1.0466
0.924072
0.795593
0.664062
0.531158
0.39978
0.272827
0.152435
0.0401306
-0.0614929
-0.152283
-0.230255
-0.2948
-0.345764
-0.383911
-0.409393
-0.423431
-0.427094
-0.421753
-0.409546
-0.391083
-0.368958
-0.344543
-0.318756
-0.292969
-0.268097
-0.245209
-0.224762
-0.207367
-0.192108
-0.180206
-0.170898
-0.163879
-0.158539
-0.15564
-0.154724
-0.155487
-0.157013
-0.159607
-0.162506
-0.165558
-0.169067
-0.172729
-0.176239
-0.179443
-0.18158
-0.184021
-0.184937
-0.185699
-0.185852
-0.185242
-0.184021
-0.18219
-0.179596
-0.176544
-0.173645
-0.170746
-0.168152
-0.165558
-0.162811
-0.16037
-0.157928
-0.156097
-0.154724
-0.153198
-0.151672
-0.150452
-0.149231
-0.147705
-0.145721
-0.144348
-0.142212
-0.139923
-0.137482
-0.134735
-0.132751
-0.130157
-0.128021
-0.12619
-0.124512
-0.122681
-0.12146
-0.12085
-0.120239
-0.120087
-0.119476
-0.118713
-0.118256
-0.117645
-0.11673
-0.115356
-0.113678
-0.111237
-0.108795
-0.105896
-0.102844
-0.100098
-0.0979614
-0.0950623
-0.0927734
-0.0904846
-0.088501
-0.0872803
-0.0866699
-0.0854492
-0.0846863
-0.0839233
-0.0823975
-0.0817871
-0.0799561
-0.0785828
-0.0764465
-0.0741577
-0.0715637
-0.0689697
-0.0666809
-0.0640869
-0.0617981
-0.0601196
-0.0578308
-0.0564575
-0.0544739
-0.0532532
-0.0526428
-0.0517273
-0.0508118
-0.0500488
-0.0491333
-0.0483704
-0.0469971
-0.0457764
-0.0442505
-0.0421143
-0.0395203
-0.0367737
-0.0346375
-0.0320435
-0.0297546
-0.027771
-0.0256348
-0.0236511
-0.0222778
-0.0209045
-0.0195312
-0.0189209
-0.0178528
-0.0167847
-0.0152588
-0.0140381
-0.012207
-0.00991821
-0.00778198
-0.00488281
-0.00152588
0.00167847
0.00488281
0.00839233
0.0108337
0.0137329
0.0163269
0.0192261
0.0216675
0.0233459
0.0250244
0.0260925
0.0276184
0.0292969
0.0311279
0.032959
0.0352478
0.0376892
0.039978
0.0436401
0.0473022
0.0511169
0.0547791
0.0585938
0.0622559
0.0656128
0.0691223
0.0727844
0.0758362
0.0785828
0.0810242
0.0837708
0.0862122
0.0886536
0.0914001
0.0941467
0.0973511
0.100861
0.104523
0.109253
0.113983
0.118866
0.123749
0.128784
0.13382
0.138245
0.143433
0.14801
0.15213
0.15625
0.159912
0.163422
0.167236
0.171204
0.175171
0.179596
0.184174
0.188904
0.194092
0.200195
0.205994
0.212097
0.218353
0.224152
0.229645
0.235443
0.240326
0.245819
0.250397
0.254974
0.258484
0.261993
0.265808
0.269012
0.272369
0.275269
0.278778
0.28183
0.285187
0.288696
0.292511
0.296326
0.29892
0.301819
0.303955
0.306091
0.308228
0.308838
0.310059
0.310059
0.309601
0.30899
0.30777
0.306549
0.305176
0.303345
0.301819
0.299835
0.298004
0.296326
0.294342
0.292511
0.289917
0.28717
0.283203
0.278778
0.27359
0.26825
0.261688
0.253906
0.245514
0.236816
0.227661
0.217896
0.207825
0.197601
0.186615
0.175781
0.164642
0.153961
0.14328
0.132599
0.121155
0.109406
0.0971985
0.085144
0.0727844
0.0605774
0.0479126
0.0354004
0.0221252
0.00915527
-0.00350952
-0.0163269
-0.0286865
-0.0402832
-0.0517273
-0.0624084
-0.072937
-0.0822449
-0.0914001
-0.0997925
-0.10788
-0.116119
-0.123901
-0.131531
-0.139008
-0.146179
-0.153198
-0.160217
-0.167389
-0.173798
-0.180969
-0.18631
-0.192261
-0.196991
-0.201569
-0.205383
-0.208588
-0.211182
-0.212555
-0.213928
-0.214996
-0.215759
-0.21698
-0.217438
-0.218201
-0.219269
-0.220032
-0.221405
-0.222473
-0.224152
-0.225067
-0.22644
-0.227661
-0.228424
-0.228577
-0.228882
-0.228729
-0.228271
-0.227203
-0.225983
-0.225067
-0.223999
-0.222778
-0.221863
-0.2211
-0.22049
-0.219574
-0.219574
-0.219421
-0.219879
-0.219421
-0.219116
-0.218658
-0.218048
-0.217133
-0.216064
-0.214691
-0.212708
-0.210419
-0.208588
-0.206451
-0.204773
-0.203247
-0.201569
-0.200043
-0.198975
-0.198059
-0.197296
-0.197296
-0.197296
-0.197296
-0.197296
-0.196991
-0.196533
-0.195923
-0.194702
-0.193939
-0.191803
-0.189667
-0.187073
-0.184937
-0.182953
-0.180511
-0.178986
-0.176849
-0.175323
-0.173645
-0.172424
-0.171356
-0.170746
-0.170135
-0.16922
-0.168457
-0.167389
-0.165863
-0.164948
-0.163574
-0.161285
-0.158539
-0.15625
-0.153503
-0.151215
-0.148926
-0.146942
-0.145111
-0.143585
-0.141754
-0.140533
-0.139465
-0.138702
-0.137939
-0.136719
-0.135651
-0.13443
-0.132751
-0.13092
-0.128937
-0.126343
-0.123596
-0.12085
-0.118103
-0.115814
-0.11322
-0.111542
-0.109406
-0.10788
-0.106201
-0.105438
-0.104828
-0.10437
-0.104065
-0.103455
-0.102386
-0.101776
-0.100555
-0.0991821
-0.0976562
-0.0958252
-0.0930786
-0.0909424
-0.088501
-0.0865173
-0.0843811
-0.0828552
-0.0814819
-0.0808716
-0.0793457
-0.0791931
-0.0790405
-0.0793457
-0.0793457
-0.0793457
-0.0790405
-0.0785828
-0.0779724
-0.0773621
-0.0765991
-0.0753784
-0.0735474
-0.0720215
-0.0706482
-0.0691223
-0.0680542
-0.0669861
-0.0657654
-0.0650024
-0.0639343
-0.0639343
-0.0639343
-0.0640869
-0.0642395
-0.0648499
-0.0650024
-0.0650024
-0.065155
-0.0648499
-0.0643921
-0.0634766
-0.0621033
-0.0608826
-0.0598145
-0.0593567
-0.0585938
-0.058136
-0.0575256
-0.057373
-0.0576782
-0.058136
-0.0590515
-0.059967
-0.0610352
-0.0614929
-0.0621033
-0.0628662
-0.0631714
-0.063324
-0.0630188
-0.0621033
-0.0608826
-0.0598145
-0.0590515
-0.0584412
-0.057373
-0.057373
-0.0569153
-0.0569153
-0.0572205
-0.0584412
-0.0596619
-0.0610352
-0.0622559
-0.0634766
-0.0648499
-0.0662231
-0.0671387
-0.0679016
-0.0682068
-0.0680542
-0.067749
-0.0671387
-0.0663757
-0.0663757
-0.0656128
-0.0654602
-0.0654602
-0.0657654
-0.0656128
-0.0660706
-0.0672913
-0.0675964
-0.0689697
-0.0694275
-0.0701904
-0.0704956
-0.0709534
-0.0709534
-0.0706482
-0.070343
-0.0695801
-0.0683594
-0.0683594
-0.0679016
-0.0675964
-0.0675964
-0.067749
-0.0680542
-0.0682068
-0.0691223
-0.0701904
-0.0714111
-0.0726318
-0.0732422
-0.0744629
-0.0752258
-0.0756836
-0.0762939
-0.075531
-0.0747681
-0.0738525
-0.0724792
-0.0715637
-0.0701904
-0.0695801
-0.0686646
-0.0683594
-0.0675964
-0.0672913
-0.067749
-0.0689697
-0.0694275
-0.0700378
-0.0709534
-0.0720215
-0.0726318
-0.0733948
-0.0732422
-0.0737
-0.072937
-0.0718689
-0.0709534
-0.070343
-0.0692749
-0.0688171
-0.0686646
-0.0680542
-0.0682068
-0.0682068
-0.0683594
-0.0692749
-0.0697327
-0.0701904
-0.0706482
-0.0709534
-0.0709534
-0.0709534
-0.0709534
-0.0700378
-0.0691223
-0.0674438
-0.0662231
-0.0650024
-0.0642395
-0.063324
-0.0619507
-0.0617981
-0.0611877
-0.0613403
-0.0614929
-0.0621033
-0.0627136
-0.0634766
-0.0639343
-0.0646973
-0.065155
-0.0650024
-0.0648499
-0.0646973
-0.0636292
-0.0621033
-0.0610352
-0.0596619
-0.0590515
-0.058136
-0.0572205
-0.0567627
-0.0561523
-0.0559998
-0.0561523
-0.0569153
-0.0575256
-0.0578308
-0.0584412
-0.0585938
-0.0590515
-0.0593567
-0.0590515
-0.058136
-0.0572205
-0.0553894
-0.0544739
-0.0527954
-0.0514221
-0.0506592
-0.0495911
-0.0491333
-0.0489807
-0.0485229
-0.0486755
-0.0489807
-0.0498962
-0.0506592
-0.0511169
-0.0520325
-0.0526428
-0.0534058
-0.0537109
-0.0535583
-0.0532532
-0.0521851
-0.0511169
-0.0505066
-0.0500488
-0.0491333
-0.0488281
-0.0485229
-0.0482178
-0.0483704
-0.0486755
-0.0491333
-0.0502014
-0.0506592
-0.0508118
-0.0511169
-0.0512695
-0.0509644
-0.0506592
-0.0497437
-0.0483704
-0.0471497
-0.0456238
-0.0437927
-0.042572
-0.0415039
-0.039978
-0.0395203
-0.0387573
-0.0382996
-0.0382996
-0.0384521
-0.0392151
-0.0392151
-0.039978
-0.0404358
-0.040741
-0.040741
-0.0408936
-0.0405884
-0.0396729
-0.0387573
-0.0379944
-0.037384
-0.0370789
-0.0367737
-0.0363159
-0.0369263
-0.0370789
-0.0372314
-0.038147
-0.0392151
-0.0402832
-0.0413513
-0.0422668
-0.0430298
-0.043335
-0.0437927
-0.0434875
-0.0431824
-0.042572
-0.0410461
-0.039978
-0.0386047
-0.0376892
-0.0369263
-0.0361633
-0.0357056
-0.03479
-0.0350952
-0.0352478
-0.0354004
-0.0363159
-0.0372314
-0.0379944
-0.0386047
-0.0393677
-0.0393677
-0.0396729
-0.0395203
-0.0386047
-0.0376892
-0.0363159
-0.0352478
-0.0346375
-0.0338745
-0.0332642
-0.0326538
-0.0326538
-0.0325012
-0.0332642
-0.0340271
-0.0346375
-0.0354004
-0.0364685
-0.0367737
-0.037384
-0.0376892
-0.037384
-0.0370789
-0.0358582
-0.0349426
-0.0337219
-0.0326538
-0.0320435
-0.0314331
-0.0311279
-0.0311279
-0.0312805
-0.0315857
-0.0323486
-0.0332642
-0.0338745
-0.0352478
-0.0360107
-0.0369263
-0.0379944
-0.0382996
-0.0386047
-0.0387573
-0.0378418
-0.0367737
-0.0358582
-0.0346375
-0.0335693
-0.0331116
-0.0323486
-0.032196
-0.0312805
-0.0311279
-0.0312805
-0.0318909
-0.0323486
-0.0325012
-0.0337219
-0.0335693
-0.0337219
-0.0340271
-0.0338745
-0.0328064
-0.0317383
-0.0300598
-0.0286865
-0.0276184
-0.0262451
-0.0254822
-0.0245667
-0.0236511
-0.0228882
-0.0224304
-0.0218201
-0.0216675
-0.0213623
-0.0210571
-0.0201416
-0.0192261
-0.0183105
-0.0169373
-0.0151062
-0.0126648
-0.010376
-0.00717163
-0.00396729
-0.000915527
0.00183105
0.00488281
0.00717163
0.00946045
0.0119019
0.0138855
0.0160217
0.0175476
0.0190735
0.0204468
0.0218201
0.0228882
0.0241089
0.025177
0.0262451
0.0273132
0.0289917
0.0305176
0.032196
0.0332642
0.0343323
0.035553
0.035553
0.0354004
0.0352478
0.0346375
0.0332642
0.032196
0.0306702
0.0296021
0.0289917
0.0288391
0.0291443
0.0306702
0.032196
0.03479
0.0376892
0.0413513
0.0454712
0.0494385
0.0532532
0.0566101
0.0598145
0.0621033
0.0643921
0.0657654
0.0662231
0.065918
0.0646973
0.0624084
0.0598145
0.0563049
0.0524902
0.0474548
0.0424194
0.0375366
0.0320435
0.0270081
0.0215149
0.0154114
0.00991821
0.00350952
-0.00228882
-0.00869751
-0.0143433
-0.0204468
-0.0259399
-0.0323486
-0.0378418
-0.0427246
-0.0473022
-0.0517273
-0.0552368
-0.0582886
-0.0610352
-0.0627136
-0.0640869
-0.0650024
-0.0653076
-0.065918
-0.0665283
-0.0674438
-0.067749
-0.0686646
-0.0692749
-0.0698853
-0.0715637
-0.072937
-0.0738525
-0.0747681
-0.075531
-0.0764465
-0.0764465
-0.0764465
-0.0762939
-0.075531
-0.0744629
-0.0726318
-0.0712585
-0.0695801
-0.0680542
-0.0666809
-0.0654602
-0.0642395
-0.0630188
-0.0627136
-0.0621033
-0.0619507
-0.0616455
-0.0617981
-0.0616455
-0.0616455
-0.0614929
-0.0610352
-0.0601196
-0.0590515
-0.057373
-0.055542
-0.0532532
-0.0514221
-0.0492859
-0.0479126
-0.0462341
-0.0444031
-0.0431824
-0.042572
-0.0419617
-0.0413513
-0.0408936
-0.0410461
-0.0405884
-0.040741
-0.0404358
-0.0395203
-0.0382996
-0.0358582
-0.0325012
-0.0276184
-0.0218201
-0.0149536
-0.00762939
0.00106812
0.0109863
0.0227356
0.0366211
0.0524902
0.0712585
0.0935364
0.119934
0.150452
0.186462
0.227966
0.275116
0.328064
0.387115
0.451355
0.52124
0.596161
0.674744
0.756683
0.84137
0.92804
1.01562
1.10397
1.19125
1.27548
1.35544
1.42883
1.49338
1.54785
1.58981
1.61758
1.63132
1.62964
1.61194
1.57822
1.53091
1.46805
1.39221
1.3028
1.20209
1.09222
0.974121
0.849915
0.722961
0.594788
0.467377
0.343323
0.223999
0.112457
0.0102234
-0.08255
-0.164185
-0.233307
-0.290527
-0.335541
-0.368042
-0.389557
-0.400391
-0.403595
-0.39917
-0.389252
-0.374298
-0.355988
-0.336456
-0.316467
-0.296173
-0.277557
-0.259857
-0.244141
-0.230408
-0.219269
-0.209656
-0.202637
-0.196991
-0.192871
-0.189667
-0.187683
-0.186615
-0.18692
-0.187378
-0.188904
-0.190582
-0.192413
-0.194092
-0.195923
-0.197754
-0.200195
-0.201569
-0.202942
-0.2034
-0.203857
-0.203857
-0.202637
-0.201874
-0.199738
-0.197144
-0.194397
-0.191193
-0.187836
-0.184937
-0.182037
-0.179138
-0.176544
-0.174103
-0.171356
-0.169678
-0.167999
-0.166473
-0.165253
-0.164032
-0.162659
-0.161438
-0.15976
-0.158234
-0.15625
-0.153656
-0.150757
-0.148315
-0.145874
-0.143585
-0.141449
-0.13916
-0.137634
-0.135498
-0.133972
-0.132599
-0.131683
-0.130005
-0.128784
-0.127411
-0.126038
-0.124512
-0.122833
-0.120544
-0.11795
-0.115204
-0.112152
-0.1091
-0.106201
-0.103607
-0.101318
-0.098877
-0.0970459
-0.0950623
-0.0933838
-0.0927734
-0.0923157
-0.0915527
-0.0907898
-0.090332
-0.0895691
-0.0888062
-0.087738
-0.0865173
-0.0846863
-0.0823975
-0.0794983
-0.0772095
-0.0746155
-0.0723267
-0.0700378
-0.0680542
-0.0662231
-0.0645447
-0.0628662
-0.0617981
-0.06073
-0.0598145
-0.0585938
-0.0576782
-0.0558472
-0.0543213
-0.0526428
-0.0505066
-0.0483704
-0.045166
-0.0418091
-0.0389099
-0.035553
-0.0328064
-0.0297546
-0.0271606
-0.0248718
-0.0228882
-0.0205994
-0.0192261
-0.0183105
-0.0169373
-0.0160217
-0.0146484
-0.0135803
-0.0125122
-0.0109863
-0.00915527
-0.00701904
-0.00473022
-0.00137329
0.00167847
0.00473022
0.00762939
0.010376
0.0128174
0.0154114
0.0180054
0.0201416
0.0219727
0.0238037
0.0259399
0.0276184
0.0299072
0.032196
0.0346375
0.037384
0.039978
0.043335
0.0476074
0.0518799
0.0561523
0.059967
0.0643921
0.0682068
0.0724792
0.0758362
0.0799561
0.0834656
0.0862122
0.0894165
0.0923157
0.0952148
0.0984192
0.102081
0.105743
0.109406
0.113525
0.11795
0.123444
0.128632
0.133972
0.139618
0.144501
0.149689
0.154724
0.159302
0.164337
0.168304
0.172577
0.176392
0.180206
0.184021
0.187988
0.192108
0.196228
0.201111
0.206146
0.211029
0.216675
0.222931
0.228577
0.234222
0.240021
0.245209
0.249939
0.254974
0.259552
0.263519
0.266724
0.270691
0.27359
0.276642
0.279388
0.282593
0.285797
0.289001
0.292206
0.295105
0.298309
0.301819
0.305481
0.30838
0.310669
0.3125
0.314331
0.31601
0.316925
0.317383
0.316467
0.315552
0.314484
0.312653
0.310669
0.308533
0.306396
0.303802
0.300903
0.298157
0.295563
0.292816
0.289459
0.285492
0.280914
0.275421
0.269928
0.263062
0.256195
0.247955
0.239105
0.229492
0.219269
0.209045
0.197906
0.186157
0.174866
0.163422
0.151367
0.139465
0.128174
0.11673
0.104675
0.0930786
0.080719
0.0682068
0.055542
0.043335
0.0315857
0.0187683
0.00579834
-0.00701904
-0.0192261
-0.0312805
-0.0431824
-0.0540161
-0.0650024
-0.0750732
-0.085144
-0.093689
-0.102234
-0.109558
-0.116577
-0.123444
-0.130157
-0.136719
-0.143127
-0.149231
-0.155182
-0.16098
-0.166931
-0.17334
-0.178986
-0.184326
-0.189209
-0.193939
-0.198059
-0.201721
-0.20462
-0.206451
-0.208588
-0.209656
-0.210419
-0.211487
-0.212097
-0.213013
-0.213165
-0.214081
-0.214539
-0.215302
-0.216522
-0.21759
-0.219116
-0.219879
-0.220337
-0.2211
-0.221405
-0.221405
-0.221252
-0.220337
-0.219269
-0.217896
-0.21637
-0.214996
-0.213623
-0.21286
-0.211792
-0.210876
-0.210266
-0.209503
-0.209198
-0.209198
-0.208588
-0.208435
-0.208282
-0.207825
-0.206909
-0.205383
-0.204163
-0.202332
-0.199432
-0.197144
-0.19455
-0.192413
-0.189667
-0.187531
-0.185394
-0.183716
-0.182037
-0.181122
-0.180206
-0.179443
-0.179138
-0.17868
-0.178375
-0.177612
-0.176849
-0.176086
-0.174408
-0.173035
-0.170898
-0.16861
-0.166626
-0.164185
-0.162659
-0.160675
-0.159454
-0.157776
-0.15686
-0.15564
-0.155334
-0.155029
-0.154724
-0.154724
-0.154266
-0.153656
-0.153046
-0.151978
-0.150909
-0.149384
-0.147095
-0.144806
-0.142212
-0.139923
-0.137787
-0.135803
-0.134277
-0.132294
-0.130768
-0.1297
-0.128479
-0.128174
-0.127411
-0.126953
-0.125885
-0.125122
-0.124359
-0.123138
-0.121918
-0.120392
-0.117798
-0.115509
-0.113525
-0.111542
-0.109711
-0.108337
-0.106812
-0.105591
-0.104675
-0.104218
-0.104218
-0.104218
-0.104218
-0.10437
-0.10498
-0.10498
-0.10498
-0.104828
-0.104218
-0.102997
-0.101318
-0.0999451
-0.0982666
-0.0964355
-0.0950623
-0.093689
-0.0926208
-0.0918579
-0.0909424
-0.0901794
-0.0900269
-0.0897217
-0.0891113
-0.0894165
-0.0891113
-0.0883484
-0.087738
-0.0872803
-0.0862122
-0.0846863
-0.0828552
-0.0805664
-0.0790405
-0.0767517
-0.0753784
-0.0733948
-0.0720215
-0.0706482
-0.0698853
-0.0686646
-0.0689697
-0.0688171
-0.0689697
-0.068512
-0.068512
-0.0688171
-0.068512
-0.067749
-0.0672913
-0.0663757
-0.0650024
-0.0634766
-0.0622559
-0.06073
-0.0598145
-0.0585938
-0.0578308
-0.0572205
-0.0569153
-0.0570679
-0.0569153
-0.0576782
-0.0582886
-0.0587463
-0.0592041
-0.0593567
-0.0598145
-0.0593567
-0.0587463
-0.058136
-0.0569153
-0.0556946
-0.0550842
-0.0537109
-0.0537109
-0.0527954
-0.0523376
-0.0523376
-0.0523376
-0.0527954
-0.0540161
-0.0552368
-0.0566101
-0.0575256
-0.0588989
-0.0602722
-0.06073
-0.0616455
-0.0619507
-0.0614929
-0.06073
-0.059967
-0.0588989
-0.0578308
-0.0572205
-0.0559998
-0.0556946
-0.0556946
-0.0549316
-0.0549316
-0.0553894
-0.0561523
-0.0572205
-0.0578308
-0.0585938
-0.0592041
-0.0601196
-0.0602722
-0.0602722
-0.059967
-0.0590515
-0.0582886
-0.0570679
-0.0567627
-0.0561523
-0.0563049
-0.0559998
-0.0563049
-0.0567627
-0.0572205
-0.0582886
-0.0595093
-0.0605774
-0.0614929
-0.0621033
-0.0630188
-0.0639343
-0.0643921
-0.0642395
-0.0642395
-0.0634766
-0.0622559
-0.0614929
-0.06073
-0.0598145
-0.0592041
-0.0588989
-0.0582886
-0.058136
-0.0585938
-0.0590515
-0.0596619
-0.0602722
-0.0613403
-0.0614929
-0.0622559
-0.0628662
-0.0628662
-0.0628662
-0.0621033
-0.0611877
-0.0598145
-0.0588989
-0.0576782
-0.0569153
-0.0558472
-0.0553894
-0.0549316
-0.0544739
-0.0543213
-0.0547791
-0.0553894
-0.0556946
-0.0564575
-0.0564575
-0.0569153
-0.0570679
-0.0572205
-0.0570679
-0.0564575
-0.0550842
-0.0543213
-0.052948
-0.0520325
-0.0514221
-0.0512695
-0.0511169
-0.0509644
-0.0511169
-0.0515747
-0.0524902
-0.0532532
-0.0547791
-0.055542
-0.0559998
-0.0570679
-0.0575256
-0.0578308
-0.0575256
-0.0570679
-0.0553894
-0.0541687
-0.0523376
-0.0508118
-0.0495911
-0.0482178
-0.0466919
-0.0460815
-0.0453186
-0.0448608
-0.045166
-0.0454712
-0.0460815
-0.0466919
-0.0471497
-0.0469971
-0.0479126
-0.0474548
-0.0474548
-0.0466919
-0.0460815
-0.0447083
-0.0439453
-0.0428772
-0.0421143
-0.0415039
-0.0408936
-0.0408936
-0.0405884
-0.0410461
-0.0413513
-0.0422668
-0.0428772
-0.0436401
-0.0442505
-0.0447083
-0.0448608
-0.0450134
-0.0448608
-0.0447083
-0.0431824
-0.0421143
-0.0410461
-0.0401306
-0.0396729
-0.0390625
-0.0389099
-0.0382996
-0.0382996
-0.0389099
-0.0395203
-0.0405884
-0.0411987
-0.0424194
-0.0428772
-0.0434875
-0.0440979
-0.0442505
-0.0445557
-0.0437927
-0.0427246
-0.0418091
-0.0405884
-0.0393677
-0.0386047
-0.0382996
-0.0375366
-0.037384
-0.0367737
-0.0364685
-0.0369263
-0.0375366
-0.038147
-0.0382996
-0.0382996
-0.0386047
-0.0384521
-0.0384521
-0.038147
-0.0372314
-0.035553
-0.0340271
-0.0325012
-0.0312805
-0.0306702
-0.0294495
-0.0292969
-0.0285339
-0.0282288
-0.0282288
-0.0288391
-0.0294495
-0.0302124
-0.0311279
-0.0317383
-0.0325012
-0.0332642
-0.0331116
-0.0335693
-0.0332642
-0.032196
-0.0315857
-0.0309753
-0.0300598
-0.0294495
-0.0289917
-0.0288391
-0.0288391
-0.0285339
-0.0289917
-0.0292969
-0.0302124
-0.0312805
-0.0318909
-0.0320435
-0.0325012
-0.032959
-0.0328064
-0.032196
-0.0314331
-0.0297546
-0.0283813
-0.0270081
-0.0256348
-0.0247192
-0.0239563
-0.0230408
-0.0227356
-0.0221252
-0.022583
-0.0234985
-0.0242615
-0.0250244
-0.0262451
-0.0267029
-0.0276184
-0.0280762
-0.0283813
-0.0283813
-0.027771
-0.0265503
-0.0254822
-0.0241089
-0.0233459
-0.0224304
-0.0213623
-0.0209045
-0.0202942
-0.0196838
-0.0193787
-0.0198364
-0.0204468
-0.0202942
-0.0209045
-0.0202942
-0.0204468
-0.0205994
-0.0201416
-0.0198364
-0.0190735
-0.0178528
-0.0169373
-0.0157166
-0.0146484
-0.0138855
-0.0134277
-0.0132751
-0.0126648
-0.01297
-0.0134277
-0.0141907
-0.0152588
-0.0163269
-0.017395
-0.018158
-0.0189209
-0.0195312
-0.0195312
-0.0192261
-0.0186157
-0.0177002
-0.0164795
-0.0152588
-0.0143433
-0.0126648
-0.0120544
-0.0115967
-0.0108337
-0.010376
-0.0102234
-0.010376
-0.0109863
-0.0114441
-0.0115967
-0.0123596
-0.01297
-0.0132751
-0.01297
-0.0128174
-0.0125122
-0.0114441
-0.010376
-0.00930786
-0.00869751
-0.00823975
-0.00778198
-0.00778198
-0.00762939
-0.00747681
-0.00823975
-0.00946045
-0.0106812
-0.0119019
-0.0131226
-0.0143433
-0.0151062
-0.0158691
-0.0166321
-0.0167847
-0.0163269
-0.014801
-0.0137329
-0.0126648
-0.0114441
-0.0105286
-0.00946045
-0.00823975
-0.00717163
-0.0062561
-0.00595093
-0.0050354
-0.00488281
-0.00427246
-0.00335693
-0.00259399
-0.000915527
0.000457764
0.00198364
0.0038147
0.00656128
0.00915527
0.0119019
0.0151062
0.0178528
0.0204468
0.0230408
0.0253296
0.0274658
0.0296021
0.0311279
0.0318909
0.0328064
0.0341797
0.0346375
0.0354004
0.0357056
0.0360107
0.0363159
0.0367737
0.0375366
0.0390625
0.0396729
0.0408936
0.0419617
0.042572
0.0428772
0.0428772
0.0428772
0.0422668
0.0411987
0.0404358
0.0398254
0.0398254
0.0395203
0.0398254
0.0402832
0.0421143
0.0442505
0.0471497
0.0506592
0.0546265
0.0590515
0.063324
0.0668335
0.0700378
0.0724792
0.0747681
0.0764465
0.0769043
0.0764465
0.0752258
0.0723267
0.0694275
0.0653076
0.0605774
0.0543213
0.0485229
0.0418091
0.035553
0.0291443
0.0230408
0.0167847
0.0106812
0.00442505
-0.00183105
-0.00778198
-0.0140381
-0.0198364
-0.0254822
-0.0306702
-0.0360107
-0.040741
-0.0453186
-0.0492859
-0.0527954
-0.0563049
-0.0588989
-0.0608826
-0.0630188
-0.0640869
-0.0646973
-0.065155
-0.0654602
-0.0657654
-0.0662231
-0.0666809
-0.0668335
-0.0671387
-0.0674438
-0.0680542
-0.0692749
-0.0700378
-0.0706482
-0.0717163
-0.0718689
-0.0721741
-0.0718689
-0.0715637
-0.071106
-0.0700378
-0.0682068
-0.0665283
-0.0645447
-0.0628662
-0.0613403
-0.059967
-0.0587463
-0.0576782
-0.0563049
-0.0558472
-0.0558472
-0.0559998
-0.055542
-0.0553894
-0.0552368
-0.0546265
-0.0538635
-0.0526428
-0.0509644
-0.0486755
-0.0463867
-0.0439453
-0.0416565
-0.0395203
-0.0372314
-0.0354004
-0.0337219
-0.0328064
-0.0315857
-0.0305176
-0.0306702
-0.030365
-0.0309753
-0.0309753
-0.0314331
-0.0309753
-0.0305176
-0.0294495
-0.0274658
-0.0241089
-0.0187683
-0.0131226
-0.00579834
0.00259399
0.012207
0.0239563
0.0375366
0.0531006
0.0721741
0.0944519
0.120087
0.151062
0.18631
0.227661
0.274048
0.326538
0.385284
0.449219
0.518799
0.593262
0.671844
0.754852
0.839233
0.926666
1.01562
1.10474
1.19263
1.27884
1.36002
1.43494
1.5007
1.55594
1.59851
1.62796
1.64215
1.64108
1.62476
1.59271
1.54633
1.48514
1.41174
1.32507
1.22726
1.11984
1.00388
0.882263
0.756989
0.630341
0.504456
0.381775
0.262604
0.150757
0.0473022
-0.045929
-0.129089
-0.200958
-0.26062
-0.308685
-0.344696
-0.370026
-0.384979
-0.391846
-0.390778
-0.383759
-0.37262
-0.358124
-0.341187
-0.323029
-0.304718
-0.287476
-0.271301
-0.257111
-0.244446
-0.233612
-0.224915
-0.218201
-0.21286
-0.20874
-0.206451
-0.204163
-0.203094
-0.202484
-0.202789
-0.203552
-0.204163
-0.205688
-0.207214
-0.20874
-0.210266
-0.211487
-0.213165
-0.214233
-0.215454
-0.215912
-0.215759
-0.215302
-0.214081
-0.212402
-0.210266
-0.207214
-0.203705
-0.200348
-0.196381
-0.192719
-0.188751
-0.185394
-0.18219
-0.178986
-0.176239
-0.173187
-0.171509
-0.169373
-0.167847
-0.165405
-0.164185
-0.162201
-0.160522
-0.158844
-0.156555
-0.153503
-0.150757
-0.148163
-0.145111
-0.142212
-0.139465
-0.137177
-0.134888
-0.132294
-0.130005
-0.128479
-0.126801
-0.125275
-0.123291
-0.121765
-0.119629
-0.11795
-0.115967
-0.113525
-0.110779
-0.10788
-0.10437
-0.101166
-0.0976562
-0.0947571
-0.0921631
-0.0898743
-0.0875854
-0.0852966
-0.0839233
-0.0827026
-0.0822449
-0.0816345
-0.0808716
-0.0802612
-0.0796509
-0.0790405
-0.078125
-0.0775146
-0.0759888
-0.0741577
-0.0721741
-0.0697327
-0.0675964
-0.0650024
-0.0634766
-0.0614929
-0.0595093
-0.0576782
-0.0563049
-0.0553894
-0.0547791
-0.0541687
-0.0534058
-0.0526428
-0.0515747
-0.0505066
-0.0489807
-0.0473022
-0.0454712
-0.042572
-0.0396729
-0.0367737
-0.0338745
-0.0305176
-0.0274658
-0.0241089
-0.0213623
-0.0184631
-0.0157166
-0.0137329
-0.0119019
-0.0105286
-0.00854492
-0.00686646
-0.00518799
-0.00305176
-0.000762939
0.00167847
0.0038147
0.00747681
0.0109863
0.014801
0.0180054
0.0212097
0.0244141
0.0279236
0.030365
0.0331116
0.0357056
0.0379944
0.0398254
0.0410461
0.043335
0.045166
0.0474548
0.0500488
0.0527954
0.0552368
0.0587463
0.0622559
0.0668335
0.0706482
0.0750732
0.0788879
0.0831604
0.0866699
0.0904846
0.0942993
0.0982666
0.101318
0.104218
0.107117
0.110321
0.113068
0.11673
0.120392
0.124359
0.128479
0.133209
0.138855
0.144501
0.150909
0.15686
0.162659
0.16861
0.174408
0.179901
0.185699
0.19104
0.195618
0.200653
0.205231
0.209351
0.214233
0.218964
0.223846
0.229187
0.23468
0.240021
0.245819
0.25238
0.258179
0.264587
0.269775
0.275421
0.279999
0.285187
0.289764
0.294037
0.297852
0.301208
0.304108
0.307159
0.309906
0.3125
0.314789
0.317993
0.32074
0.323944
0.326691
0.330048
0.333252
0.336456
0.338898
0.341644
0.343323
0.344696
0.345917
0.346222
0.345459
0.344543
0.342865
0.341034
0.338135
0.335693
0.332184
0.329132
0.325623
0.322266
0.318909
0.315399
0.311432
0.307617
0.302582
0.296631
0.290527
0.283813
0.276489
0.268707
0.259552
0.249786
0.239716
0.229492
0.218048
0.206604
0.195007
0.183411
0.171204
0.159302
0.1474
0.136108
0.124207
0.112305
0.100098
0.0874329
0.0752258
0.0624084
0.0498962
0.0375366
0.0250244
0.012207
-0.000457764
-0.0126648
-0.0247192
-0.0361633
-0.0471497
-0.0575256
-0.0675964
-0.0762939
-0.0846863
-0.0918579
-0.0985718
-0.105286
-0.111847
-0.118713
-0.124512
-0.130615
-0.136566
-0.142517
-0.148163
-0.153809
-0.159912
-0.164948
-0.169525
-0.174103
-0.17868
-0.18219
-0.185394
-0.187988
-0.189819
-0.191193
-0.192108
-0.193176
-0.193939
-0.194244
-0.195312
-0.19577
-0.196228
-0.196991
-0.198059
-0.199127
-0.19989
-0.200958
-0.202026
-0.202789
-0.202942
-0.2034
-0.203094
-0.202942
-0.201721
-0.2005
-0.198517
-0.197296
-0.196228
-0.194855
-0.193939
-0.192871
-0.191803
-0.190887
-0.190887
-0.19043
-0.190735
-0.19043
-0.19043
-0.190125
-0.189667
-0.188904
-0.187683
-0.186615
-0.184479
-0.182343
-0.180054
-0.177307
-0.175323
-0.173645
-0.171814
-0.169983
-0.168762
-0.167694
-0.166779
-0.166626
-0.166168
-0.165405
-0.164795
-0.164795
-0.16449
-0.163116
-0.162201
-0.160675
-0.158844
-0.156403
-0.154572
-0.152283
-0.150452
-0.148315
-0.146484
-0.145111
-0.143738
-0.142212
-0.141296
-0.140991
-0.140991
-0.139923
-0.139465
-0.139008
-0.138397
-0.137482
-0.136261
-0.13504
-0.132904
-0.130615
-0.128174
-0.126038
-0.123901
-0.12207
-0.120392
-0.118561
-0.117493
-0.115967
-0.114594
-0.114441
-0.114136
-0.113678
-0.11322
-0.112457
-0.111694
-0.111389
-0.110168
-0.108795
-0.107117
-0.105133
-0.102997
-0.101013
-0.0994873
-0.0978088
-0.0967407
-0.0953674
-0.0939941
-0.0933838
-0.0933838
-0.0930786
-0.0932312
-0.0932312
-0.0930786
-0.0933838
-0.0926208
-0.092926
-0.0923157
-0.0918579
-0.0904846
-0.0888062
-0.0872803
-0.0857544
-0.0846863
-0.0834656
-0.0827026
-0.0819397
-0.0813293
-0.0811768
-0.0811768
-0.0816345
-0.0823975
-0.0830078
-0.0836182
-0.0842285
-0.0845337
-0.0843811
-0.0843811
-0.0839233
-0.083313
-0.0816345
-0.0802612
-0.0788879
-0.0776672
-0.0764465
-0.075531
-0.0746155
-0.0738525
-0.0732422
-0.0732422
-0.0733948
-0.0735474
-0.0741577
-0.0741577
-0.0746155
-0.0752258
-0.0753784
-0.0753784
-0.0749207
-0.0744629
-0.0732422
-0.0724792
-0.0715637
-0.071106
-0.071106
-0.0706482
-0.0709534
-0.0709534
-0.0715637
-0.0718689
-0.0732422
-0.0747681
-0.075531
-0.0764465
-0.0770569
-0.0773621
-0.0775146
-0.0773621
-0.0770569
-0.0759888
-0.0744629
-0.0720215
-0.0704956
-0.0686646
-0.0679016
-0.0663757
-0.0654602
-0.0653076
-0.0646973
-0.0646973
-0.0653076
-0.0657654
-0.0669861
-0.0675964
-0.0688171
-0.0694275
-0.0694275
-0.0697327
-0.0701904
-0.0695801
-0.0691223
-0.0682068
-0.0679016
-0.0671387
-0.0668335
-0.0665283
-0.0666809
-0.0665283
-0.0665283
-0.0674438
-0.068512
-0.0692749
-0.0701904
-0.071106
-0.0718689
-0.0721741
-0.072937
-0.0730896
-0.0730896
-0.0727844
-0.0715637
-0.0708008
-0.0700378
-0.0694275
-0.0686646
-0.068512
-0.0683594
-0.0679016
-0.068512
-0.0688171
-0.0697327
-0.0706482
-0.0714111
-0.0723267
-0.0726318
-0.0730896
-0.0733948
-0.0732422
-0.0727844
-0.0721741
-0.071106
-0.0692749
-0.0682068
-0.0671387
-0.065918
-0.0654602
-0.065155
-0.0646973
-0.0645447
-0.0648499
-0.0656128
-0.0663757
-0.0671387
-0.0675964
-0.0683594
-0.0694275
-0.0694275
-0.0698853
-0.0697327
-0.0689697
-0.0682068
-0.0669861
-0.0657654
-0.0650024
-0.0643921
-0.0636292
-0.0630188
-0.0624084
-0.0621033
-0.0619507
-0.062561
-0.063324
-0.063324
-0.0636292
-0.0637817
-0.0642395
-0.0634766
-0.0630188
-0.0619507
-0.0608826
-0.0593567
-0.0579834
-0.0563049
-0.0546265
-0.0541687
-0.0532532
-0.052948
-0.0524902
-0.052948
-0.0532532
-0.0543213
-0.0549316
-0.0558472
-0.057373
-0.0579834
-0.0592041
-0.0601196
-0.06073
-0.06073
-0.059967
-0.0596619
-0.058136
-0.0572205
-0.0564575
-0.0559998
-0.0553894
-0.0547791
-0.0543213
-0.0543213
-0.0544739
-0.0546265
-0.0549316
-0.055542
-0.0558472
-0.0561523
-0.0561523
-0.0561523
-0.0556946
-0.055542
-0.0546265
-0.0531006
-0.0520325
-0.0509644
-0.0500488
-0.0489807
-0.0482178
-0.0476074
-0.0473022
-0.0471497
-0.0473022
-0.0480652
-0.0483704
-0.0486755
-0.0492859
-0.0495911
-0.0497437
-0.0497437
-0.0495911
-0.0488281
-0.0479126
-0.0466919
-0.045166
-0.0439453
-0.0431824
-0.0424194
-0.0411987
-0.0416565
-0.0408936
-0.0411987
-0.0413513
-0.0424194
-0.0431824
-0.0445557
-0.0448608
-0.045929
-0.0463867
-0.0466919
-0.0468445
-0.0465393
-0.0454712
-0.0444031
-0.0430298
-0.0418091
-0.0408936
-0.039978
-0.0398254
-0.0389099
-0.0386047
-0.0387573
-0.0389099
-0.0396729
-0.0404358
-0.0410461
-0.0415039
-0.0424194
-0.0428772
-0.0430298
-0.0431824
-0.042572
-0.0415039
-0.040741
-0.0396729
-0.0382996
-0.0376892
-0.0366211
-0.0358582
-0.0358582
-0.0352478
-0.0354004
-0.0361633
-0.0367737
-0.0372314
-0.0382996
-0.0392151
-0.0401306
-0.0402832
-0.0404358
-0.0401306
-0.0396729
-0.0386047
-0.0370789
-0.0358582
-0.03479
-0.0331116
-0.0320435
-0.0311279
-0.0302124
-0.0297546
-0.0289917
-0.0291443
-0.0291443
-0.0299072
-0.0305176
-0.0305176
-0.0314331
-0.0318909
-0.0318909
-0.0317383
-0.0317383
-0.0311279
-0.030365
-0.0296021
-0.0286865
-0.0279236
-0.0274658
-0.0274658
-0.0273132
-0.0271606
-0.0271606
-0.0279236
-0.0289917
-0.0299072
-0.0308228
-0.0309753
-0.0320435
-0.032196
-0.032196
-0.032196
-0.0315857
-0.0305176
-0.0294495
-0.0280762
-0.0271606
-0.0262451
-0.0253296
-0.0247192
-0.0244141
-0.0238037
-0.0236511
-0.0241089
-0.0247192
-0.025177
-0.0263977
-0.0268555
-0.0276184
-0.0285339
-0.0286865
-0.0286865
-0.0288391
-0.0280762
-0.027771
-0.0265503
-0.0260925
-0.0253296
-0.0253296
-0.0248718
-0.0248718
-0.0250244
-0.0256348
-0.0263977
-0.0274658
-0.0286865
-0.0300598
-0.0308228
-0.0317383
-0.032196
-0.0325012
-0.0323486
-0.0315857
-0.0302124
-0.0288391
-0.0270081
-0.025177
-0.0238037
-0.0224304
-0.0212097
-0.0201416
-0.0195312
-0.0189209
-0.0187683
-0.0195312
-0.0195312
-0.0204468
-0.0205994
-0.0215149
-0.0224304
-0.022583
-0.0233459
-0.0230408
-0.022583
-0.0222778
-0.0212097
-0.020752
-0.0201416
-0.0201416
-0.0196838
-0.0190735
-0.0189209
-0.0186157
-0.0190735
-0.0193787
-0.0201416
-0.020752
-0.020752
-0.0210571
-0.0213623
-0.0210571
-0.0210571
-0.0209045
-0.0198364
-0.0184631
-0.0177002
-0.0167847
-0.0158691
-0.0152588
-0.0151062
-0.0151062
-0.0154114
-0.0158691
-0.0163269
-0.0175476
-0.0186157
-0.0193787
-0.0205994
-0.0215149
-0.0216675
-0.0218201
-0.0218201
-0.0209045
-0.0193787
-0.0183105
-0.0166321
-0.0146484
-0.0132751
-0.0119019
-0.0100708
-0.0088501
-0.00671387
-0.00488281
-0.0038147
-0.00228882
-0.000762939
0.000762939
0.00259399
0.00473022
0.00686646
0.00961304
0.0123596
0.015564
0.0189209
0.0230408
0.0271606
0.0305176
0.0344849
0.0372314
0.0396729
0.0419617
0.0445557
0.0457764
0.0466919
0.0465393
0.0460815
0.0457764
0.0450134
0.0436401
0.042572
0.0421143
0.0415039
0.0411987
0.0416565
0.0428772
0.0436401
0.0447083
0.0456238
0.0473022
0.0485229
0.0505066
0.0526428
0.0552368
0.0576782
0.0605774
0.0639343
0.0675964
0.0712585
0.0752258
0.0793457
0.083313
0.087738
0.0920105
0.0968933
0.10025
0.103607
0.106049
0.10788
0.10849
0.107727
0.106049
0.102997
0.098877
0.0932312
0.0865173
0.0785828
0.0701904
0.0616455
0.052948
0.0436401
0.0352478
0.0268555
0.0189209
0.0120544
0.00564575
0.0
-0.00564575
-0.0105286
-0.0154114
-0.0202942
-0.0245667
-0.0282288
-0.032196
-0.0358582
-0.0395203
-0.042572
-0.0456238
-0.0483704
-0.0505066
-0.0524902
-0.0544739
-0.0556946
-0.0572205
-0.0575256
-0.057373
-0.0578308
-0.058136
-0.0585938
-0.0590515
-0.0596619
-0.0598145
-0.0601196
-0.0602722
-0.0616455
-0.0624084
-0.0634766
-0.0639343
-0.0646973
-0.0653076
-0.065155
-0.0653076
-0.0653076
-0.0646973
-0.063324
-0.0621033
-0.0608826
-0.059967
-0.0590515
-0.0579834
-0.0575256
-0.0570679
-0.0564575
-0.0564575
-0.0569153
-0.0570679
-0.0572205
-0.057373
-0.0570679
-0.0567627
-0.0558472
-0.0550842
-0.0537109
-0.0518799
-0.0498962
-0.0469971
-0.0439453
-0.0418091
-0.0387573
-0.0366211
-0.0344849
-0.0326538
-0.0314331
-0.0305176
-0.0302124
-0.0308228
-0.0314331
-0.0318909
-0.0320435
-0.0315857
-0.0306702
-0.0282288
-0.0244141
-0.0187683
-0.0115967
-0.00228882
0.00808716
0.0204468
0.0350952
0.0517273
0.0717163
0.0949097
0.122833
0.155029
0.191956
0.234375
0.282135
0.334778
0.393372
0.457153
0.525818
0.59906
0.67627
0.756989
0.84137
0.927887
1.01593
1.10428
1.1908
1.27457
1.35345
1.42441
1.48636
1.53656
1.57425
1.59744
1.60583
1.59729
1.57303
1.53259
1.47736
1.40778
1.32462
1.23001
1.12411
1.01059
0.889435
0.763855
0.635834
0.507965
0.382538
0.261383
0.146942
0.039978
-0.0570679
-0.144043
-0.218506
-0.281525
-0.331573
-0.369568
-0.395813
-0.410767
-0.416718
-0.413055
-0.402374
-0.386353
-0.366516
-0.343933
-0.321198
-0.297699
-0.274963
-0.254669
-0.236053
-0.220184
-0.207214
-0.196991
-0.189972
-0.184479
-0.181122
-0.179901
-0.179443
-0.180054
-0.181732
-0.183716
-0.185242
-0.186157
-0.187531
-0.188599
-0.189667
-0.190887
-0.191345
-0.191498
-0.191345
-0.191803
-0.19165
-0.191345
-0.191193
-0.190277
-0.189667
-0.188141
-0.186615
-0.184326
-0.182495
-0.180206
-0.177155
-0.174255
-0.171051
-0.168304
-0.16571
-0.164185
-0.162048
-0.160675
-0.159149
-0.157928
-0.157318
-0.15686
-0.155945
-0.155182
-0.154572
-0.153351
-0.151672
-0.150146
-0.148773
-0.145874
-0.143433
-0.140076
-0.137177
-0.134125
-0.131226
-0.128479
-0.12619
-0.123596
-0.121307
-0.119476
-0.118256
-0.117188
-0.115814
-0.114746
-0.113983
-0.112915
-0.111694
-0.110474
-0.1091
-0.107422
-0.104828
-0.102386
-0.0994873
-0.0975037
-0.0950623
-0.0927734
-0.0909424
-0.0886536
-0.0866699
-0.085144
-0.0839233
-0.0830078
-0.0820923
-0.0810242
-0.0801086
-0.0790405
-0.0779724
-0.0764465
-0.0747681
-0.072937
-0.0701904
-0.067749
-0.0646973
-0.0621033
-0.0592041
-0.0569153
-0.0544739
-0.0520325
-0.0497437
-0.0479126
-0.0466919
-0.0457764
-0.0444031
-0.0436401
-0.042572
-0.0410461
-0.039978
-0.0386047
-0.0367737
-0.0349426
-0.0328064
-0.0297546
-0.0271606
-0.0244141
-0.0218201
-0.0201416
-0.0180054
-0.0161743
-0.0143433
-0.0131226
-0.0117493
-0.0109863
-0.00946045
-0.00854492
-0.00732422
-0.00595093
-0.00366211
-0.00152588
0.000915527
0.00366211
0.00717163
0.0114441
0.0151062
0.0195312
0.0228882
0.0268555
0.0305176
0.0338745
0.0372314
0.0395203
0.0415039
0.0436401
0.0454712
0.0476074
0.0494385
0.0520325
0.0543213
0.0567627
0.0595093
0.0630188
0.0666809
0.0712585
0.0752258
0.0790405
0.083313
0.0872803
0.0906372
0.0946045
0.098114
0.101776
0.10498
0.108185
0.110931
0.114288
0.11734
0.120697
0.124207
0.128174
0.132599
0.137939
0.14328
0.149384
0.155029
0.161133
0.166779
0.171814
0.177307
0.182495
0.187531
0.192261
0.196686
0.201111
0.204926
0.209198
0.213318
0.217133
0.221863
0.226135
0.230713
0.235748
0.241089
0.246582
0.252228
0.257263
0.262909
0.267792
0.272369
0.276642
0.280914
0.284119
0.287476
0.289917
0.292358
0.2948
0.297089
0.299225
0.301056
0.302887
0.305176
0.307159
0.309296
0.311737
0.31311
0.314484
0.315094
0.315857
0.315094
0.314941
0.313416
0.312042
0.309753
0.307007
0.303955
0.300446
0.297089
0.292969
0.288544
0.284271
0.279999
0.275269
0.270996
0.266571
0.261841
0.256348
0.250092
0.243073
0.235748
0.227356
0.218964
0.209351
0.198364
0.187378
0.175781
0.163574
0.151215
0.138855
0.125885
0.11322
0.100403
0.0875854
0.0759888
0.0636292
0.0520325
0.0401306
0.0283813
0.0166321
0.00488281
-0.00671387
-0.0183105
-0.0300598
-0.0413513
-0.0527954
-0.0642395
-0.0747681
-0.0846863
-0.0946045
-0.10376
-0.111847
-0.119629
-0.126801
-0.133057
-0.138855
-0.144348
-0.149841
-0.155182
-0.160217
-0.165253
-0.170746
-0.175171
-0.180206
-0.185089
-0.190125
-0.194244
-0.198517
-0.201874
-0.205688
-0.209198
-0.211487
-0.213776
-0.215302
-0.216064
-0.216675
-0.216827
-0.217285
-0.217285
-0.217438
-0.217743
-0.217438
-0.217743
-0.218048
-0.219269
-0.219879
-0.220795
-0.221558
-0.222473
-0.222626
-0.222931
-0.222931
-0.222168
-0.221405
-0.220184
-0.218353
-0.216675
-0.214844
-0.213623
-0.212402
-0.211334
-0.210114
-0.209351
-0.209045
-0.208435
-0.208435
-0.208588
-0.208435
-0.207977
-0.207367
-0.207214
-0.205994
-0.205383
-0.203857
-0.201874
-0.199585
-0.197601
-0.195618
-0.193787
-0.191498
-0.190125
-0.188446
-0.186768
-0.185547
-0.184784
-0.185089
-0.183868
-0.183716
-0.182953
-0.182343
-0.18158
-0.180359
-0.178986
-0.176849
-0.174561
-0.171967
-0.169525
-0.166931
-0.164948
-0.162964
-0.161285
-0.15976
-0.157928
-0.156555
-0.15564
-0.15564
-0.155182
-0.154266
-0.153656
-0.152893
-0.152283
-0.151062
-0.149689
-0.147705
-0.145569
-0.142822
-0.140381
-0.137939
-0.136108
-0.133972
-0.132141
-0.130615
-0.129547
-0.128326
-0.127869
-0.127411
-0.126801
-0.126343
-0.12558
-0.124969
-0.124054
-0.123444
-0.121918
-0.120544
-0.11795
-0.115662
-0.11322
-0.110779
-0.108795
-0.106659
-0.10498
-0.103302
-0.101929
-0.101166
-0.101166
-0.100555
-0.10025
-0.100098
-0.100403
-0.100098
-0.0990295
-0.0984192
-0.0973511
-0.096283
-0.0941467
-0.0921631
-0.0900269
-0.088501
-0.0863647
-0.0843811
-0.0827026
-0.0811768
-0.0796509
-0.0785828
-0.0779724
-0.0776672
-0.0775146
-0.0767517
-0.0764465
-0.0761414
-0.0753784
-0.0752258
-0.0743103
-0.072937
-0.071106
-0.0695801
-0.067749
-0.0663757
-0.0650024
-0.0639343
-0.0628662
-0.0616455
-0.0608826
-0.0611877
-0.0608826
-0.0614929
-0.0613403
-0.0617981
-0.0621033
-0.0619507
-0.0616455
-0.0614929
-0.0610352
-0.0601196
-0.0585938
-0.0572205
-0.055542
-0.0547791
-0.0543213
-0.0537109
-0.0537109
-0.0541687
-0.0546265
-0.0546265
-0.0561523
-0.0576782
-0.0585938
-0.0601196
-0.0610352
-0.0619507
-0.0631714
-0.0642395
-0.0639343
-0.0634766
-0.0628662
-0.0617981
-0.0608826
-0.0596619
-0.0585938
-0.0576782
-0.0572205
-0.0566101
-0.0558472
-0.0559998
-0.0566101
-0.0569153
-0.057373
-0.0582886
-0.0592041
-0.0595093
-0.0604248
-0.0611877
-0.0613403
-0.0611877
-0.0605774
-0.0598145
-0.0593567
-0.0592041
-0.0587463
-0.0585938
-0.0587463
-0.0587463
-0.0593567
-0.0598145
-0.0602722
-0.0617981
-0.0627136
-0.0636292
-0.0643921
-0.0653076
-0.0656128
-0.065918
-0.065918
-0.065918
-0.065155
-0.0640869
-0.0628662
-0.0621033
-0.0617981
-0.0613403
-0.06073
-0.0610352
-0.0608826
-0.0613403
-0.0622559
-0.0631714
-0.0642395
-0.065155
-0.0663757
-0.0672913
-0.0679016
-0.0686646
-0.0686646
-0.0682068
-0.0674438
-0.0663757
-0.0653076
-0.0640869
-0.063324
-0.0627136
-0.0621033
-0.0613403
-0.0608826
-0.0608826
-0.0608826
-0.0614929
-0.0619507
-0.0624084
-0.0627136
-0.0628662
-0.0631714
-0.0627136
-0.0616455
-0.0610352
-0.0593567
-0.0578308
-0.0566101
-0.0550842
-0.0543213
-0.0532532
-0.0527954
-0.0526428
-0.0523376
-0.0527954
-0.0532532
-0.0544739
-0.0552368
-0.0559998
-0.0570679
-0.0579834
-0.0585938
-0.0588989
-0.0590515
-0.0588989
-0.0575256
-0.0566101
-0.055542
-0.0540161
-0.052948
-0.0523376
-0.0511169
-0.0505066
-0.0495911
-0.0488281
-0.0492859
-0.0489807
-0.0492859
-0.0492859
-0.0497437
-0.0495911
-0.0497437
-0.0494385
-0.0491333
-0.0482178
-0.0465393
-0.0453186
-0.0440979
-0.043335
-0.0424194
-0.0422668
-0.0415039
-0.0415039
-0.0413513
-0.0418091
-0.0427246
-0.043335
-0.0444031
-0.0448608
-0.0454712
-0.0456238
-0.0460815
-0.045929
-0.0460815
-0.0456238
-0.0440979
-0.0430298
-0.0419617
-0.0405884
-0.0395203
-0.0387573
-0.038147
-0.0376892
-0.0375366
-0.0378418
-0.0386047
-0.0390625
-0.0401306
-0.0404358
-0.0411987
-0.0411987
-0.0418091
-0.0415039
-0.0411987
-0.0404358
-0.0390625
-0.0378418
-0.0370789
-0.0357056
-0.0343323
-0.0335693
-0.032959
-0.0326538
-0.032196
-0.0325012
-0.0331116
-0.0337219
-0.0341797
-0.03479
-0.0349426
-0.035553
-0.035553
-0.0352478
-0.0352478
-0.0344849
-0.0331116
-0.0317383
-0.0302124
-0.0288391
-0.0279236
-0.0273132
-0.0263977
-0.0259399
-0.0256348
-0.0254822
-0.0263977
-0.0271606
-0.0280762
-0.0286865
-0.0296021
-0.030365
-0.0308228
-0.0311279
-0.0309753
-0.0306702
-0.0296021
-0.0285339
-0.0276184
-0.0263977
-0.025177
-0.0242615
-0.0236511
-0.0234985
-0.0227356
-0.0230408
-0.0233459
-0.0236511
-0.0241089
-0.0241089
-0.0241089
-0.0245667
-0.0248718
-0.0248718
-0.0244141
-0.0234985
-0.0227356
-0.0212097
-0.019989
-0.0190735
-0.0180054
-0.017395
-0.0170898
-0.0164795
-0.0158691
-0.0161743
-0.0164795
-0.0169373
-0.017395
-0.0177002
-0.0186157
-0.0186157
-0.0189209
-0.0192261
-0.0184631
-0.018158
-0.0167847
-0.0154114
-0.0141907
-0.01297
-0.0123596
-0.0115967
-0.0112915
-0.0111389
-0.0114441
-0.0112915
-0.0123596
-0.0132751
-0.0141907
-0.0149536
-0.0152588
-0.0161743
-0.0163269
-0.0166321
-0.0167847
-0.0161743
-0.0151062
-0.0140381
-0.0126648
-0.0114441
-0.0105286
-0.00961304
-0.0088501
-0.00823975
-0.00808716
-0.00762939
-0.00823975
-0.0088501
-0.00946045
-0.00976562
-0.010376
-0.0106812
-0.0106812
-0.0106812
-0.0100708
-0.00961304
-0.00808716
-0.00701904
-0.00564575
-0.00473022
-0.00411987
-0.00335693
-0.00289917
-0.00274658
-0.00228882
-0.00259399
-0.00320435
-0.00427246
-0.00488281
-0.00534058
-0.00579834
-0.00686646
-0.00747681
-0.00717163
-0.00732422
-0.00717163
-0.00595093
-0.00488281
-0.0038147
-0.00305176
-0.00198364
-0.00183105
-0.0012207
-0.00167847
-0.00152588
-0.00228882
-0.00274658
-0.00335693
-0.00442505
-0.00579834
-0.00640869
-0.00701904
-0.00762939
-0.00839233
-0.0088501
-0.00839233
-0.00747681
-0.00671387
-0.0062561
-0.00549316
-0.00488281
-0.00427246
-0.00396729
-0.00320435
-0.00320435
-0.00305176
-0.00289917
-0.00274658
-0.00274658
-0.00152588
-0.0012207
0.000610352
0.00213623
0.00411987
0.00686646
0.010376
0.0143433
0.0186157
0.0222778
0.0268555
0.0300598
0.0343323
0.0376892
0.040741
0.0440979
0.0466919
0.0488281
0.050354
0.0521851
0.0532532
0.0543213
0.0547791
0.0558472
0.0563049
0.0564575
0.0576782
0.0584412
0.0596619
0.0610352
0.0616455
0.0622559
0.0628662
0.0631714
0.0636292
0.0636292
0.0637817
0.0640869
0.0643921
0.0648499
0.0668335
0.068512
0.070343
0.0738525
0.0772095
0.0811768
0.085907
0.0912476
0.0965881
0.101624
0.105591
0.109558
0.112305
0.114288
0.115356
0.115204
0.114136
0.111694
0.107727
0.102997
0.0970459
0.0901794
0.0820923
0.0737
0.0646973
0.0553894
0.0460815
0.038147
0.0296021
0.0209045
0.0128174
0.00411987
-0.00350952
-0.0111389
-0.018158
-0.0250244
-0.0312805
-0.0376892
-0.0431824
-0.0480652
-0.052948
-0.0570679
-0.0604248
-0.0630188
-0.065155
-0.0668335
-0.0679016
-0.0686646
-0.0689697
-0.0691223
-0.0697327
-0.0706482
-0.0712585
-0.0721741
-0.0732422
-0.0743103
-0.0753784
-0.0767517
-0.0785828
-0.0796509
-0.0811768
-0.0820923
-0.0828552
-0.0836182
-0.0836182
-0.083313
-0.0820923
-0.080719
-0.0788879
-0.0773621
-0.0752258
-0.0738525
-0.0727844
-0.0715637
-0.070343
-0.0694275
-0.0689697
-0.0683594
-0.0682068
-0.0682068
-0.067749
-0.0671387
-0.0671387
-0.0663757
-0.0656128
-0.0648499
-0.0631714
-0.0611877
-0.0592041
-0.0576782
-0.0558472
-0.0541687
-0.0527954
-0.0515747
-0.0497437
-0.0492859
-0.0483704
-0.0483704
-0.0479126
-0.04776
-0.04776
-0.0479126
-0.0479126
-0.0473022
-0.0466919
-0.0448608
-0.0413513
-0.0363159
-0.0306702
-0.0238037
-0.015564
-0.00640869
0.00442505
0.0170898
0.0314331
0.0482178
0.0680542
0.091095
0.118713
0.151215
0.188141
0.23056
0.278778
0.332489
0.391846
0.455933
0.526276
0.600586
0.678864
0.760498
0.844421
0.930176
1.01669
1.10306
1.1882
1.26999
1.34644
1.4151
1.47491
1.5239
1.5596
1.58142
1.58813
1.57913
1.55426
1.51413
1.45859
1.38947
1.30707
1.21201
1.10657
0.991821
0.870819
0.744934
0.616913
0.489044
0.363312
0.242157
0.127258
0.0204468
-0.0765991
-0.162659
-0.236816
-0.298767
-0.348206
-0.384674
-0.40863
-0.422058
-0.425873
-0.4216
-0.410614
-0.393982
-0.374146
-0.351562
-0.328369
-0.305481
-0.283661
-0.263977
-0.246277
-0.231628
-0.219116
-0.209045
-0.201569
-0.196381
-0.193024
-0.190887
-0.189819
-0.189819
-0.19043
-0.191956
-0.193329
-0.195465
-0.197449
-0.19928
-0.201111
-0.202789
-0.204315
-0.205383
-0.206604
-0.207062
-0.206604
-0.206604
-0.205841
-0.20462
-0.202332
-0.19989
-0.196686
-0.193481
-0.189514
-0.185852
-0.182037
-0.178528
-0.175781
-0.172729
-0.170441
-0.168152
-0.166626
-0.165405
-0.164185
-0.163269
-0.161896
-0.16098
-0.15976
-0.158539
-0.157013
-0.155182
-0.15274
-0.149994
-0.146637
-0.144043
-0.141144
-0.13855
-0.135651
-0.133209
-0.13092
-0.128632
-0.126343
-0.125275
-0.123749
-0.121918
-0.120087
-0.118713
-0.117188
-0.115051
-0.113373
-0.111542
-0.109253
-0.106049
-0.103607
-0.100861
-0.098114
-0.0959778
-0.0942993
-0.0924683
-0.0906372
-0.0889587
-0.0881958
-0.0872803
-0.0865173
-0.0862122
-0.0854492
-0.0848389
-0.0839233
-0.0823975
-0.0813293
-0.0794983
-0.0773621
-0.0743103
-0.0715637
-0.0691223
-0.0662231
-0.0637817
-0.0614929
-0.0595093
-0.0572205
-0.055542
-0.0541687
-0.0532532
-0.0524902
-0.0512695
-0.0508118
-0.0500488
-0.0489807
-0.0479126
-0.0466919
-0.0447083
-0.0428772
-0.0401306
-0.0375366
-0.0350952
-0.0326538
-0.0305176
-0.0282288
-0.0260925
-0.0242615
-0.022583
-0.0210571
-0.019989
-0.0186157
-0.0178528
-0.0160217
-0.0144958
-0.0128174
-0.0109863
-0.0088501
-0.00640869
-0.00335693
0.000457764
0.00396729
0.00762939
0.0111389
0.014801
0.0177002
0.0205994
0.0236511
0.0265503
0.0289917
0.0306702
0.0325012
0.03479
0.0367737
0.0389099
0.040741
0.0431824
0.0460815
0.0489807
0.052948
0.0566101
0.06073
0.0643921
0.068512
0.0720215
0.0759888
0.0793457
0.0828552
0.0865173
0.0894165
0.0920105
0.0946045
0.0971985
0.0994873
0.102234
0.105438
0.108643
0.11261
0.116425
0.120239
0.125732
0.130157
0.135498
0.140381
0.145416
0.150604
0.155334
0.160217
0.164795
0.16922
0.172729
0.176544
0.180969
0.184631
0.188751
0.193024
0.197296
0.201874
0.207214
0.212555
0.218506
0.224609
0.230255
0.235443
0.240631
0.246124
0.251007
0.255585
0.260162
0.26413
0.267639
0.271149
0.274353
0.277252
0.280762
0.282898
0.28595
0.288849
0.291595
0.294952
0.298615
0.301514
0.304718
0.307312
0.309143
0.310974
0.312347
0.313263
0.313721
0.313416
0.3125
0.311584
0.310364
0.308838
0.306854
0.304565
0.302582
0.300293
0.297852
0.295715
0.293427
0.29129
0.287476
0.283813
0.279236
0.273895
0.267792
0.261383
0.254211
0.245972
0.236664
0.227203
0.216827
0.206451
0.195618
0.184479
0.173035
0.161438
0.150146
0.138855
0.127716
0.116272
0.104523
0.0932312
0.0814819
0.0694275
0.0575256
0.0448608
0.0334167
0.0205994
0.00778198
-0.00442505
-0.0164795
-0.0286865
-0.0401306
-0.0512695
-0.0619507
-0.0718689
-0.0811768
-0.0894165
-0.0971985
-0.104675
-0.111389
-0.118103
-0.124969
-0.131378
-0.137634
-0.143738
-0.149384
-0.15564
-0.161591
-0.167694
-0.17334
-0.17868
-0.183868
-0.187988
-0.191956
-0.195618
-0.198822
-0.200806
-0.202637
-0.203705
-0.204773
-0.205688
-0.206604
-0.207825
-0.208435
-0.209351
-0.210114
-0.211029
-0.21225
-0.213318
-0.214386
-0.215302
-0.215912
-0.216064
-0.216217
-0.216217
-0.215454
-0.214233
-0.212708
-0.211334
-0.209351
-0.207825
-0.206757
-0.205231
-0.204163
-0.203552
-0.202026
-0.201721
-0.201874
-0.201569
-0.201416
-0.201263
-0.200806
-0.200195
-0.199432
-0.198364
-0.197144
-0.195618
-0.193329
-0.191345
-0.188904
-0.187531
-0.185852
-0.184174
-0.183105
-0.181885
-0.181122
-0.180664
-0.180206
-0.180359
-0.180206
-0.180054
-0.179901
-0.179596
-0.178833
-0.178223
-0.177002
-0.175476
-0.173187
-0.171356
-0.169067
-0.167236
-0.165253
-0.163574
-0.162201
-0.160675
-0.159302
-0.158234
-0.157776
-0.157471
-0.156708
-0.155792
-0.156097
-0.155029
-0.153809
-0.152893
-0.151672
-0.149231
-0.146637
-0.144348
-0.142212
-0.139771
-0.138092
-0.136261
-0.134735
-0.133362
-0.132446
-0.131683
-0.131073
-0.130615
-0.13031
-0.1297
-0.129089
-0.128632
-0.127716
-0.126953
-0.125885
-0.124207
-0.121613
-0.119781
-0.11795
-0.116272
-0.114594
-0.112457
-0.111389
-0.109558
-0.108643
-0.10788
-0.108185
-0.10788
-0.108032
-0.107269
-0.107117
-0.107117
-0.106812
-0.106049
-0.104828
-0.103302
-0.101318
-0.0993347
-0.0973511
-0.0958252
-0.0944519
-0.0927734
-0.0918579
-0.0906372
-0.0898743
-0.0892639
-0.0895691
-0.0895691
-0.0894165
-0.0895691
-0.0895691
-0.0889587
-0.0888062
-0.0886536
-0.0878906
-0.0865173
-0.0846863
-0.083313
-0.0817871
-0.0802612
-0.0791931
-0.0782776
-0.0775146
-0.0767517
-0.0761414
-0.0761414
-0.0764465
-0.0765991
-0.0770569
-0.0769043
-0.0770569
-0.0773621
-0.0770569
-0.0769043
-0.0762939
-0.0746155
-0.0733948
-0.0717163
-0.0698853
-0.0680542
-0.0669861
-0.0660706
-0.065155
-0.0645447
-0.0642395
-0.0643921
-0.0646973
-0.0657654
-0.0656128
-0.0666809
-0.0671387
-0.067749
-0.067749
-0.0680542
-0.0679016
-0.0669861
-0.065918
-0.0653076
-0.0642395
-0.0642395
-0.0639343
-0.063324
-0.0637817
-0.063324
-0.063324
-0.0646973
-0.0656128
-0.0663757
-0.0672913
-0.0680542
-0.0691223
-0.0700378
-0.0701904
-0.0704956
-0.070343
-0.0697327
-0.0688171
-0.0675964
-0.0663757
-0.0657654
-0.065155
-0.0645447
-0.0643921
-0.0637817
-0.0639343
-0.0643921
-0.065155
-0.0657654
-0.0671387
-0.0675964
-0.0688171
-0.0694275
-0.0698853
-0.0708008
-0.0704956
-0.0698853
-0.0692749
-0.0686646
-0.0680542
-0.0675964
-0.0665283
-0.0665283
-0.065918
-0.0656128
-0.0654602
-0.0657654
-0.0666809
-0.0672913
-0.067749
-0.0680542
-0.0688171
-0.0688171
-0.0691223
-0.068512
-0.0679016
-0.0669861
-0.0656128
-0.0645447
-0.063324
-0.062561
-0.0622559
-0.0616455
-0.0614929
-0.0614929
-0.0614929
-0.0621033
-0.063324
-0.0639343
-0.0650024
-0.0663757
-0.0669861
-0.0672913
-0.067749
-0.0680542
-0.0680542
-0.0666809
-0.0657654
-0.0646973
-0.063324
-0.0622559
-0.0614929
-0.0602722
-0.0598145
-0.0590515
-0.0584412
-0.0584412
-0.0590515
-0.0595093
-0.0602722
-0.0605774
-0.0613403
-0.0614929
-0.0616455
-0.0613403
-0.0608826
-0.0598145
-0.0584412
-0.0572205
-0.0558472
-0.0549316
-0.0540161
-0.0535583
-0.0534058
-0.0531006
-0.0531006
-0.0535583
-0.0544739
-0.0553894
-0.0564575
-0.0572205
-0.0578308
-0.0584412
-0.0588989
-0.0588989
-0.0584412
-0.0575256
-0.0558472
-0.0547791
-0.0534058
-0.0518799
-0.0509644
-0.0497437
-0.0483704
-0.0476074
-0.0471497
-0.0469971
-0.0471497
-0.0474548
-0.0482178
-0.0479126
-0.0486755
-0.0491333
-0.0488281
-0.0492859
-0.0488281
-0.0479126
-0.0466919
-0.045929
-0.045166
-0.0444031
-0.0436401
-0.043335
-0.0431824
-0.0431824
-0.0431824
-0.0434875
-0.0442505
-0.0450134
-0.0456238
-0.045929
-0.0463867
-0.0468445
-0.0463867
-0.0466919
-0.0463867
-0.0450134
-0.0437927
-0.042572
-0.0410461
-0.0398254
-0.0393677
-0.0387573
-0.0379944
-0.0378418
-0.0378418
-0.0382996
-0.0389099
-0.0390625
-0.0398254
-0.040741
-0.0410461
-0.0411987
-0.0415039
-0.0416565
-0.0411987
-0.0402832
-0.0390625
-0.0376892
-0.0369263
-0.0357056
-0.0350952
-0.0346375
-0.0343323
-0.0343323
-0.0340271
-0.0341797
-0.0349426
-0.0361633
-0.0367737
-0.0378418
-0.0382996
-0.0395203
-0.0393677
-0.0396729
-0.0395203
-0.0384521
-0.0378418
-0.0364685
-0.0358582
-0.0349426
-0.0338745
-0.0337219
-0.0328064
-0.0328064
-0.0325012
-0.0326538
-0.0332642
-0.0341797
-0.0346375
-0.0349426
-0.0357056
-0.0358582
-0.0354004
-0.0350952
-0.0344849
-0.0332642
-0.0317383
-0.030365
-0.0288391
-0.027771
-0.0265503
-0.0260925
-0.0250244
-0.0242615
-0.0242615
-0.0241089
-0.0250244
-0.0254822
-0.0259399
-0.0265503
-0.0270081
-0.0274658
-0.0273132
-0.0273132
-0.0270081
-0.0259399
-0.0254822
-0.0236511
-0.0227356
-0.0218201
-0.0210571
-0.0204468
-0.019989
-0.019989
-0.019989
-0.0198364
-0.0201416
-0.0210571
-0.0216675
-0.0221252
-0.0228882
-0.0233459
-0.0234985
-0.0236511
-0.0233459
-0.0222778
-0.0210571
-0.019989
-0.0190735
-0.0178528
-0.0172424
-0.0164795
-0.0161743
-0.0157166
-0.0158691
-0.0160217
-0.0167847
-0.0175476
-0.0186157
-0.0192261
-0.0201416
-0.0205994
-0.0209045
-0.020752
-0.0209045
-0.0202942
-0.0189209
-0.0178528
-0.0166321
-0.0158691
-0.0154114
-0.0151062
-0.0146484
-0.0143433
-0.0149536
-0.0151062
-0.0157166
-0.0163269
-0.0175476
-0.0178528
-0.0184631
-0.0190735
-0.0192261
-0.0193787
-0.0189209
-0.0180054
-0.0170898
-0.0160217
-0.014801
-0.0140381
-0.0131226
-0.0126648
-0.0123596
-0.0120544
-0.0119019
-0.0120544
-0.0132751
-0.0141907
-0.0154114
-0.0161743
-0.0167847
-0.0172424
-0.0175476
-0.0175476
-0.017395
-0.0161743
-0.014801
-0.0137329
-0.0125122
-0.0119019
-0.0108337
-0.0100708
-0.00946045
-0.00915527
-0.00946045
-0.00976562
-0.010376
-0.0109863
-0.0123596
-0.0128174
-0.0138855
-0.0141907
-0.0146484
-0.0149536
-0.0152588
-0.0146484
-0.0140381
-0.0132751
-0.0126648
-0.0117493
-0.0115967
-0.0108337
-0.0108337
-0.0106812
-0.0109863
-0.0115967
-0.0120544
-0.01297
-0.0134277
-0.0143433
-0.0146484
-0.0154114
-0.0157166
-0.0158691
-0.0154114
-0.0149536
-0.0134277
-0.01297
-0.012207
-0.0109863
-0.0100708
-0.00961304
-0.00961304
-0.00946045
-0.00915527
-0.00946045
-0.0102234
-0.0109863
-0.0115967
-0.0120544
-0.0128174
-0.01297
-0.0126648
-0.0126648
-0.012207
-0.010376
-0.00930786
-0.00778198
-0.00610352
-0.00488281
-0.00366211
-0.00289917
-0.00183105
-0.00137329
0.000305176
0.000762939
0.00106812
0.00183105
0.00305176
0.0038147
0.00534058
0.00732422
0.00976562
0.012207
0.0154114
0.0195312
0.0236511
0.0279236
0.0317383
0.0358582
0.0395203
0.0427246
0.0465393
0.0494385
0.0524902
0.0544739
0.0561523
0.0575256
0.0585938
0.0588989
0.0592041
0.0592041
0.0595093
0.0595093
0.0598145
0.0610352
0.0621033
0.062561
0.0636292
0.0642395
0.0646973
0.065155
0.065918
0.0666809
0.0675964
0.0682068
0.0691223
0.0709534
0.072937
0.0750732
0.0785828
0.0817871
0.085907
0.0909424
0.0956726
0.101471
0.106812
0.112305
0.117188
0.120392
0.123138
0.125275
0.125885
0.12558
0.123901
0.120392
0.116272
0.110321
0.103607
0.0956726
0.0872803
0.0785828
0.0695801
0.0601196
0.0509644
0.0424194
0.0346375
0.0265503
0.0184631
0.0109863
0.00350952
-0.00350952
-0.00961304
-0.0152588
-0.0210571
-0.0262451
-0.0314331
-0.0360107
-0.0398254
-0.0430298
-0.0462341
-0.0483704
-0.0505066
-0.0521851
-0.0531006
-0.0537109
-0.0534058
-0.0534058
-0.0535583
-0.0532532
-0.0535583
-0.0534058
-0.0535583
-0.0540161
-0.0543213
-0.0547791
-0.0558472
-0.0567627
-0.0578308
-0.0584412
-0.0590515
-0.0592041
-0.0596619
-0.0595093
-0.0593567
-0.058136
-0.0569153
-0.055542
-0.0544739
-0.0534058
-0.0526428
-0.0515747
-0.0511169
-0.0505066
-0.0502014
-0.0502014
-0.0511169
-0.0514221
-0.0514221
-0.0515747
-0.0515747
-0.0515747
-0.0511169
-0.0502014
-0.0488281
-0.0468445
-0.0447083
-0.0424194
-0.0401306
-0.038147
-0.0360107
-0.0343323
-0.032959
-0.0312805
-0.0305176
-0.0299072
-0.0296021
-0.0296021
-0.0291443
-0.0288391
-0.027771
-0.0263977
-0.0233459
-0.0195312
-0.0141907
-0.00732422
0.000457764
0.00991821
0.0209045
0.0335693
0.0482178
0.0656128
0.0863647
0.110779
0.138855
0.171509
0.20874
0.25116
0.29953
0.353088
0.411987
0.476379
0.546112
0.619659
0.697479
0.779419
0.863953
0.95047
1.03836
1.12549
1.2114
1.29425
1.37207
1.44333
1.50467
1.55533
1.59271
1.61682
1.62613
1.61987
1.59821
1.56143
1.51031
1.44485
1.36673
1.27731
1.17737
1.06812
0.952301
0.831299
0.707397
0.582733
0.459747
0.340118
0.22583
0.117798
0.0187683
-0.070343
-0.148926
-0.215912
-0.271301
-0.314941
-0.346985
-0.3685
-0.380707
-0.383759
-0.379333
-0.369415
-0.355682
-0.338898
-0.320129
-0.300751
-0.281525
-0.263062
-0.245972
-0.231018
-0.218201
-0.207367
-0.198822
-0.192261
-0.187531
-0.184326
-0.182495
-0.182037
-0.181732
-0.181885
-0.18219
-0.182648
-0.184326
-0.185547
-0.186462
-0.187988
-0.188904
-0.189514
-0.190277
-0.191498
-0.192108
-0.192261
-0.192108
-0.191803
-0.190735
-0.189819
-0.188141
-0.186157
-0.183411
-0.180206
-0.176392
-0.172882
-0.169525
-0.166168
-0.162964
-0.160065
-0.157471
-0.154877
-0.15274
-0.150909
-0.149689
-0.148315
-0.147095
-0.145721
-0.144501
-0.142822
-0.141296
-0.139771
-0.137482
-0.134583
-0.131989
-0.128937
-0.126495
-0.124054
-0.121307
-0.119324
-0.11734
-0.115356
-0.113831
-0.112762
-0.111542
-0.110626
-0.110168
-0.109406
-0.10849
-0.107269
-0.106049
-0.104218
-0.102539
-0.100098
-0.0971985
-0.0946045
-0.0918579
-0.0894165
-0.0871277
-0.0846863
-0.0828552
-0.0810242
-0.0793457
-0.078125
-0.0775146
-0.0764465
-0.0752258
-0.0740051
-0.0727844
-0.0717163
-0.0698853
-0.0679016
-0.0657654
-0.0630188
-0.0593567
-0.0569153
-0.0541687
-0.0511169
-0.0485229
-0.0462341
-0.0442505
-0.0421143
-0.0404358
-0.0390625
-0.0386047
-0.0375366
-0.0363159
-0.0354004
-0.0341797
-0.0334167
-0.0315857
-0.0302124
-0.0279236
-0.0254822
-0.0228882
-0.0204468
-0.0178528
-0.0154114
-0.0131226
-0.0106812
-0.00900269
-0.00686646
-0.00564575
-0.00396729
-0.00305176
-0.00137329
-0.000305176
0.0012207
0.00289917
0.00473022
0.00732422
0.00976562
0.0126648
0.0164795
0.019989
0.0238037
0.0273132
0.0306702
0.0331116
0.0364685
0.0393677
0.0416565
0.0439453
0.045929
0.0476074
0.0495911
0.0517273
0.0535583
0.0556946
0.0578308
0.0602722
0.0630188
0.0660706
0.0698853
0.0744629
0.0778198
0.0819397
0.0860596
0.090332
0.0944519
0.0984192
0.102081
0.105438
0.108948
0.111847
0.115051
0.117798
0.120544
0.124054
0.127563
0.131683
0.135956
0.140686
0.146027
0.151367
0.157013
0.162201
0.167389
0.172729
0.17746
0.1828
0.187988
0.192413
0.196686
0.200653
0.205078
0.209503
0.213776
0.218506
0.222931
0.227509
0.232544
0.237732
0.243683
0.249786
0.25589
0.261536
0.266724
0.272064
0.276337
0.281219
0.285492
0.289154
0.292206
0.295105
0.298004
0.300446
0.302734
0.304718
0.307312
0.310059
0.31189
0.314484
0.317078
0.319977
0.322571
0.324554
0.326233
0.327759
0.328827
0.329285
0.32959
0.329132
0.327606
0.325775
0.323486
0.321198
0.318451
0.315399
0.312347
0.309143
0.305634
0.301971
0.298767
0.29541
0.29129
0.287018
0.28183
0.275879
0.270081
0.263062
0.25528
0.246735
0.237122
0.227661
0.217133
0.206451
0.195465
0.184174
0.172882
0.16098
0.149384
0.138092
0.126495
0.115509
0.104218
0.0926208
0.0808716
0.0691223
0.0569153
0.0445557
0.032959
0.0205994
0.00793457
-0.00488281
-0.0172424
-0.0294495
-0.0411987
-0.0523376
-0.0631714
-0.0737
-0.0834656
-0.0923157
-0.100403
-0.108032
-0.114746
-0.12146
-0.128174
-0.134277
-0.140381
-0.146027
-0.151825
-0.15686
-0.162659
-0.167847
-0.173187
-0.17807
-0.182495
-0.186462
-0.190582
-0.194092
-0.196686
-0.198669
-0.200348
-0.201569
-0.202332
-0.2034
-0.204773
-0.205536
-0.206909
-0.207825
-0.208893
-0.209961
-0.211639
-0.212708
-0.213776
-0.214996
-0.215607
-0.216064
-0.216522
-0.21698
-0.216522
-0.215454
-0.214386
-0.212402
-0.210876
-0.209045
-0.207367
-0.205536
-0.204163
-0.203094
-0.201874
-0.200806
-0.200043
-0.199738
-0.199738
-0.199127
-0.198975
-0.198364
-0.198059
-0.196838
-0.195923
-0.194244
-0.192261
-0.189667
-0.187378
-0.185089
-0.183563
-0.181122
-0.179596
-0.17807
-0.176392
-0.175171
-0.174103
-0.17395
-0.173492
-0.172424
-0.172272
-0.171356
-0.170593
-0.16922
-0.167847
-0.166321
-0.164185
-0.162354
-0.159912
-0.157928
-0.155945
-0.153961
-0.15274
-0.151215
-0.150299
-0.148926
-0.148926
-0.148163
-0.148163
-0.147705
-0.147247
-0.146942
-0.146027
-0.144653
-0.143585
-0.141907
-0.139618
-0.137177
-0.134888
-0.132599
-0.13031
-0.128632
-0.126801
-0.125427
-0.124207
-0.122833
-0.122528
-0.12207
-0.121918
-0.121613
-0.121765
-0.121613
-0.12146
-0.12085
-0.120239
-0.119171
-0.117188
-0.115509
-0.113525
-0.112
-0.110168
-0.108795
-0.107727
-0.106506
-0.105286
-0.104523
-0.104065
-0.103455
-0.103302
-0.102997
-0.102234
-0.101471
-0.100861
-0.100098
-0.0987244
-0.0970459
-0.0949097
-0.0926208
-0.0907898
-0.0891113
-0.0869751
-0.0854492
-0.0845337
-0.083313
-0.0823975
-0.0822449
-0.0820923
-0.0823975
-0.0823975
-0.0823975
-0.0828552
-0.083313
-0.0830078
-0.0823975
-0.0819397
-0.0810242
-0.0798035
-0.0779724
-0.0767517
-0.0752258
-0.0741577
-0.0733948
-0.0723267
-0.0718689
-0.0712585
-0.0706482
-0.0712585
-0.0717163
-0.0717163
-0.0721741
-0.0724792
-0.0726318
-0.0727844
-0.0724792
-0.0718689
-0.0706482
-0.0694275
-0.0679016
-0.0662231
-0.0650024
-0.0634766
-0.062561
-0.0619507
-0.0613403
-0.0604248
-0.0605774
-0.0613403
-0.0617981
-0.0624084
-0.0627136
-0.063324
-0.0637817
-0.0639343
-0.0639343
-0.0637817
-0.0630188
-0.0622559
-0.0610352
-0.0601196
-0.0588989
-0.058136
-0.0576782
-0.0570679
-0.0567627
-0.0559998
-0.0566101
-0.0570679
-0.0575256
-0.0579834
-0.0588989
-0.0596619
-0.059967
-0.0605774
-0.0610352
-0.0610352
-0.06073
-0.0598145
-0.0585938
-0.0576782
-0.0570679
-0.0567627
-0.0558472
-0.0558472
-0.055542
-0.0559998
-0.0569153
-0.0576782
-0.0593567
-0.0604248
-0.0613403
-0.062561
-0.0634766
-0.0643921
-0.0648499
-0.0650024
-0.0646973
-0.0640869
-0.0628662
-0.0621033
-0.0613403
-0.0601196
-0.0593567
-0.0590515
-0.0587463
-0.058136
-0.058136
-0.0590515
-0.0596619
-0.0601196
-0.0608826
-0.0614929
-0.0621033
-0.0622559
-0.0621033
-0.0628662
-0.0622559
-0.0610352
-0.0604248
-0.0592041
-0.0587463
-0.058136
-0.0576782
-0.0572205
-0.0569153
-0.0567627
-0.0570679
-0.057373
-0.0582886
-0.0588989
-0.0596619
-0.0604248
-0.0602722
-0.06073
-0.0604248
-0.0598145
-0.0590515
-0.057373
-0.055542
-0.0543213
-0.0524902
-0.0512695
-0.0502014
-0.0489807
-0.0483704
-0.0474548
-0.0476074
-0.0480652
-0.0486755
-0.0497437
-0.050354
-0.0511169
-0.0524902
-0.0531006
-0.0534058
-0.0541687
-0.0538635
-0.0534058
-0.0526428
-0.0520325
-0.0515747
-0.0511169
-0.0509644
-0.0505066
-0.0502014
-0.050354
-0.050354
-0.0506592
-0.0514221
-0.0517273
-0.0518799
-0.0527954
-0.0527954
-0.052948
-0.0524902
-0.0517273
-0.0511169
-0.0495911
-0.0483704
-0.0468445
-0.0460815
-0.045166
-0.0445557
-0.0434875
-0.0437927
-0.0434875
-0.0436401
-0.0440979
-0.0448608
-0.045929
-0.0463867
-0.0476074
-0.0480652
-0.0482178
-0.0483704
-0.0482178
-0.0479126
-0.0463867
-0.045166
-0.0437927
-0.0428772
-0.0421143
-0.0413513
-0.0404358
-0.0405884
-0.039978
-0.039978
-0.0405884
-0.0411987
-0.0418091
-0.0422668
-0.0430298
-0.0431824
-0.0437927
-0.0434875
-0.043335
-0.0427246
-0.0413513
-0.0401306
-0.0384521
-0.037384
-0.0361633
-0.035553
-0.03479
-0.0340271
-0.0338745
-0.0338745
-0.0341797
-0.0349426
-0.0357056
-0.0364685
-0.0369263
-0.0378418
-0.0379944
-0.038147
-0.038147
-0.0378418
-0.0367737
-0.0357056
-0.0341797
-0.0334167
-0.0323486
-0.032196
-0.0314331
-0.0312805
-0.0308228
-0.0309753
-0.0315857
-0.0323486
-0.032959
-0.0335693
-0.0340271
-0.03479
-0.03479
-0.0346375
-0.0346375
-0.0340271
-0.032959
-0.0315857
-0.0308228
-0.0292969
-0.0288391
-0.0279236
-0.0274658
-0.0270081
-0.0265503
-0.0268555
-0.0274658
-0.0276184
-0.0285339
-0.0289917
-0.0296021
-0.0300598
-0.030365
-0.0302124
-0.030365
-0.0292969
-0.0282288
-0.0271606
-0.0257874
-0.0244141
-0.0238037
-0.0230408
-0.0228882
-0.0224304
-0.0218201
-0.022583
-0.0233459
-0.0242615
-0.0248718
-0.0259399
-0.0263977
-0.0274658
-0.0274658
-0.0280762
-0.0280762
-0.0276184
-0.0268555
-0.0257874
-0.0245667
-0.0236511
-0.022583
-0.0221252
-0.0209045
-0.0205994
-0.0202942
-0.0201416
-0.0201416
-0.0204468
-0.0209045
-0.0213623
-0.0216675
-0.0216675
-0.0215149
-0.0218201
-0.0216675
-0.0212097
-0.019989
-0.0189209
-0.0183105
-0.017395
-0.0170898
-0.0169373
-0.0167847
-0.0169373
-0.0170898
-0.0184631
-0.0193787
-0.020752
-0.0216675
-0.0227356
-0.0231934
-0.0242615
-0.0244141
-0.0247192
-0.0245667
-0.0233459
-0.0219727
-0.0209045
-0.0195312
-0.0184631
-0.0167847
-0.0160217
-0.0157166
-0.0149536
-0.0140381
-0.0138855
-0.0146484
-0.0152588
-0.0161743
-0.0167847
-0.0177002
-0.0184631
-0.0190735
-0.0198364
-0.0202942
-0.0202942
-0.0195312
-0.0192261
-0.0186157
-0.0180054
-0.0178528
-0.0178528
-0.0175476
-0.0180054
-0.0180054
-0.0189209
-0.019989
-0.0209045
-0.0219727
-0.0233459
-0.0242615
-0.0247192
-0.025177
-0.0256348
-0.025177
-0.0248718
-0.0236511
-0.0222778
-0.0210571
-0.019989
-0.0187683
-0.018158
-0.0177002
-0.0172424
-0.0164795
-0.0164795
-0.0167847
-0.0175476
-0.0183105
-0.0186157
-0.0195312
-0.0195312
-0.0195312
-0.0196838
-0.0193787
-0.0183105
-0.0175476
-0.0161743
-0.0149536
-0.0137329
-0.0132751
-0.012207
-0.0119019
-0.0120544
-0.0117493
-0.0120544
-0.0126648
-0.0134277
-0.0143433
-0.0154114
-0.0160217
-0.0169373
-0.0172424
-0.0175476
-0.0180054
-0.0172424
-0.0166321
-0.0157166
-0.0143433
-0.0140381
-0.0134277
-0.0131226
-0.01297
-0.0128174
-0.0126648
-0.01297
-0.0137329
-0.0149536
-0.0158691
-0.0169373
-0.0175476
-0.0178528
-0.018158
-0.0172424
-0.0164795
-0.0151062
-0.0128174
-0.0100708
-0.00717163
-0.00473022
-0.00213623
0.000915527
0.00396729
0.00686646
0.0100708
0.0126648
0.0144958
0.0172424
0.0190735
0.0215149
0.0238037
0.0262451
0.0289917
0.0314331
0.0349426
0.0379944
0.0410461
0.0447083
0.0476074
0.0505066
0.0521851
0.0537109
0.0546265
0.055542
0.0558472
0.055542
0.0544739
0.0538635
0.052948
0.0520325
0.0511169
0.0505066
0.0505066
0.050354
0.0511169
0.0527954
0.055542
0.0592041
0.0630188
0.0672913
0.0724792
0.0772095
0.08255
0.0880432
0.0935364
0.098877
0.103607
0.108032
0.111847
0.114899
0.117645
0.119324
0.121307
0.121613
0.12085
0.119934
0.118103
0.114746
0.110474
0.104828
0.0978088
0.0904846
0.0820923
0.0727844
0.063324
0.052948
0.0427246
0.0326538
0.0222778
0.0126648
0.00366211
-0.00534058
-0.0128174
-0.0196838
-0.0259399
-0.0306702
-0.0346375
-0.0375366
-0.039978
-0.0424194
-0.0442505
-0.0462341
-0.0479126
-0.0495911
-0.0511169
-0.0532532
-0.055542
-0.0578308
-0.059967
-0.0619507
-0.0640869
-0.0653076
-0.0665283
-0.0675964
-0.0679016
-0.0674438
-0.0666809
-0.0653076
-0.0640869
-0.0631714
-0.0619507
-0.0604248
-0.0595093
-0.0582886
-0.057373
-0.0567627
-0.0567627
-0.0564575
-0.0566101
-0.0566101
-0.0567627
-0.0567627
-0.0564575
-0.0563049
-0.0559998
-0.0550842
-0.0534058
-0.0520325
-0.0502014
-0.0491333
-0.0482178
-0.0473022
-0.0465393
-0.0456238
-0.0448608
-0.0444031
-0.0445557
-0.0444031
-0.0447083
-0.0444031
-0.0440979
-0.0434875
-0.0430298
-0.0418091
-0.040741
-0.0392151
-0.0378418
-0.0357056
-0.0343323
-0.0323486
-0.0306702
-0.0288391
-0.0267029
-0.0233459
-0.0201416
-0.0154114
-0.0105286
-0.00442505
0.00289917
0.0128174
0.0238037
0.0378418
0.0540161
0.0741577
0.0982666
0.127869
0.162506
0.201721
0.247345
0.298157
0.354156
0.415802
0.482635
0.553589
0.629272
0.70816
0.789795
0.873566
0.959778
1.0463
1.13342
1.21902
1.30112
1.37833
1.44836
1.5094
1.55899
1.59576
1.61865
1.62598
1.61743
1.59286
1.55289
1.4975
1.42822
1.34598
1.25076
1.14563
1.0321
0.91217
0.787964
0.662384
0.536804
0.414124
0.296021
0.184631
0.0813293
-0.0115967
-0.0953674
-0.167542
-0.228882
-0.278473
-0.316772
-0.344543
-0.362244
-0.371552
-0.373535
-0.368805
-0.359344
-0.346222
-0.330048
-0.312347
-0.294342
-0.276031
-0.259247
-0.242462
-0.227661
-0.214691
-0.20401
-0.195007
-0.188446
-0.183868
-0.180511
-0.178833
-0.177765
-0.17868
-0.180054
-0.181732
-0.183716
-0.186005
-0.187683
-0.189362
-0.190735
-0.191498
-0.191498
-0.190735
-0.189514
-0.187683
-0.186157
-0.184479
-0.182343
-0.180664
-0.179291
-0.177002
-0.175476
-0.174255
-0.173187
-0.172119
-0.170746
-0.169678
-0.168915
-0.167389
-0.165863
-0.164337
-0.162201
-0.159302
-0.15625
-0.153198
-0.149994
-0.147095
-0.144043
-0.141144
-0.138855
-0.136414
-0.13382
-0.132141
-0.13092
-0.1297
-0.128174
-0.126648
-0.125122
-0.124054
-0.122375
-0.120544
-0.118103
-0.115814
-0.112915
-0.110016
-0.106964
-0.104218
-0.101471
-0.0987244
-0.0959778
-0.0939941
-0.0915527
-0.0901794
-0.0889587
-0.0875854
-0.0862122
-0.0852966
-0.0840759
-0.08255
-0.0811768
-0.0794983
-0.0772095
-0.0749207
-0.0720215
-0.0689697
-0.0666809
-0.0637817
-0.0624084
-0.059967
-0.058136
-0.0564575
-0.0550842
-0.0541687
-0.0532532
-0.0521851
-0.0515747
-0.0509644
-0.0498962
-0.0489807
-0.0474548
-0.0460815
-0.0440979
-0.0421143
-0.0393677
-0.0366211
-0.0338745
-0.0317383
-0.0289917
-0.0268555
-0.0244141
-0.0224304
-0.0205994
-0.0189209
-0.0180054
-0.0166321
-0.015564
-0.0144958
-0.0135803
-0.012207
-0.0106812
-0.00900269
-0.00701904
-0.00442505
-0.00106812
0.00213623
0.00534058
0.00823975
0.0117493
0.014801
0.0178528
0.020752
0.0234985
0.0259399
0.0276184
0.0299072
0.0314331
0.0337219
0.0360107
0.0378418
0.0396729
0.0421143
0.0440979
0.0474548
0.0512695
0.0547791
0.0582886
0.0614929
0.0642395
0.0679016
0.0704956
0.0737
0.0762939
0.0788879
0.0813293
0.0834656
0.0862122
0.0891113
0.0915527
0.09552
0.0990295
0.103607
0.108185
0.113068
0.118408
0.124207
0.130005
0.134888
0.139771
0.145111
0.149078
0.153351
0.157166
0.160828
0.164032
0.166473
0.169067
0.172272
0.174713
0.177917
0.180817
0.184784
0.188446
0.193481
0.198517
0.204315
0.209808
0.215759
0.22171
0.227509
0.233002
0.238342
0.24353
0.248718
0.253296
0.257263
0.261688
0.265503
0.270081
0.274048
0.27832
0.282135
0.28656
0.290222
0.294952
0.299377
0.303497
0.307617
0.310669
0.313721
0.31662
0.318909
0.320587
0.32196
0.322113
0.322876
0.323181
0.323334
0.323029
0.323181
0.322876
0.322571
0.322113
0.322723
0.322571
0.322418
0.321503
0.321045
0.319519
0.317535
0.314941
0.312042
0.308838
0.304565
0.299835
0.294647
0.288544
0.282288
0.275726
0.268707
0.261383
0.253448
0.245972
0.238037
0.230408
0.22171
0.213013
0.203857
0.194092
0.183868
0.172424
0.160828
0.149231
0.135956
0.122681
0.109406
0.0953674
0.0819397
0.0680542
0.0549316
0.0418091
0.0292969
0.0164795
0.00549316
-0.00534058
-0.0164795
-0.0270081
-0.037384
-0.04776
-0.058136
-0.067749
-0.0776672
-0.0866699
-0.0964355
-0.105591
-0.114594
-0.122833
-0.130157
-0.137634
-0.144348
-0.150299
-0.155792
-0.160675
-0.16449
-0.167847
-0.170746
-0.17334
-0.176086
-0.179291
-0.181885
-0.184479
-0.18692
-0.189667
-0.192413
-0.19516
-0.198212
-0.200348
-0.202789
-0.205078
-0.206146
-0.208282
-0.208893
-0.209656
-0.209503
-0.209198
-0.208435
-0.20813
-0.207062
-0.206604
-0.206451
-0.206299
-0.205841
-0.205841
-0.206451
-0.207062
-0.207825
-0.20874
-0.209656
-0.210419
-0.210876
-0.210724
-0.210419
-0.209503
-0.20813
-0.206146
-0.203857
-0.201874
-0.199585
-0.197754
-0.195618
-0.194092
-0.191956
-0.19043
-0.189209
-0.187988
-0.187531
-0.186615
-0.185394
-0.184326
-0.184021
-0.182648
-0.181427
-0.180206
-0.17807
-0.176086
-0.173798
-0.171204
-0.169373
-0.167694
-0.165863
-0.164337
-0.162964
-0.161896
-0.160828
-0.160675
-0.160217
-0.160217
-0.159912
-0.158997
-0.158844
-0.157776
-0.156708
-0.155334
-0.153656
-0.15152
-0.149536
-0.147552
-0.145416
-0.143433
-0.142212
-0.140686
-0.139465
-0.137787
-0.137329
-0.136566
-0.136261
-0.135651
-0.13504
-0.134735
-0.133667
-0.132751
-0.131531
-0.129852
-0.127258
-0.124817
-0.122223
-0.119781
-0.11795
-0.115967
-0.113831
-0.112152
-0.110321
-0.108643
-0.107422
-0.107117
-0.106201
-0.105591
-0.105438
-0.10437
-0.103607
-0.102081
-0.101166
-0.0994873
-0.0973511
-0.0947571
-0.0921631
-0.0897217
-0.087738
-0.0860596
-0.0846863
-0.0837708
-0.0828552
-0.0830078
-0.0828552
-0.0834656
-0.0840759
-0.0848389
-0.0857544
-0.0863647
-0.0869751
-0.0875854
-0.0872803
-0.0874329
-0.0866699
-0.0852966
-0.0842285
-0.0822449
-0.0810242
-0.0798035
-0.0787354
-0.0773621
-0.0764465
-0.0753784
-0.0744629
-0.0738525
-0.0733948
-0.0730896
-0.0727844
-0.0724792
-0.0721741
-0.0717163
-0.0708008
-0.0700378
-0.0686646
-0.0669861
-0.0653076
-0.0637817
-0.0624084
-0.0614929
-0.0605774
-0.059967
-0.0592041
-0.0588989
-0.0593567
-0.059967
-0.06073
-0.0616455
-0.0622559
-0.0628662
-0.0631714
-0.0634766
-0.0631714
-0.0628662
-0.0613403
-0.0598145
-0.058136
-0.0566101
-0.0553894
-0.0544739
-0.0537109
-0.0532532
-0.0521851
-0.0521851
-0.0521851
-0.052948
-0.0535583
-0.0543213
-0.0552368
-0.0559998
-0.0567627
-0.057373
-0.0578308
-0.0579834
-0.057373
-0.0572205
-0.0563049
-0.0564575
-0.0559998
-0.0556946
-0.0552368
-0.0553894
-0.0552368
-0.0552368
-0.0558472
-0.0564575
-0.0570679
-0.0578308
-0.0579834
-0.0588989
-0.0590515
-0.0590515
-0.0588989
-0.0584412
-0.0572205
-0.0559998
-0.0552368
-0.0541687
-0.0535583
-0.0526428
-0.0527954
-0.052948
-0.0531006
-0.0532532
-0.0547791
-0.0558472
-0.057373
-0.0585938
-0.0601196
-0.0610352
-0.0622559
-0.0627136
-0.0630188
-0.0627136
-0.0619507
-0.0611877
-0.0598145
-0.0592041
-0.0584412
-0.0576782
-0.0572205
-0.0567627
-0.0563049
-0.0559998
-0.0567627
-0.0570679
-0.0578308
-0.0582886
-0.0592041
-0.0598145
-0.0604248
-0.0608826
-0.0616455
-0.0611877
-0.0610352
-0.0605774
-0.0598145
-0.0588989
-0.0585938
-0.0579834
-0.0578308
-0.0575256
-0.0570679
-0.0570679
-0.057373
-0.0584412
-0.0588989
-0.0590515
-0.0598145
-0.059967
-0.0601196
-0.0604248
-0.0602722
-0.059967
-0.0588989
-0.0576782
-0.0566101
-0.055542
-0.0550842
-0.0541687
-0.0537109
-0.0534058
-0.0537109
-0.0538635
-0.0544739
-0.0550842
-0.0566101
-0.0575256
-0.0582886
-0.0595093
-0.059967
-0.0598145
-0.0601196
-0.0596619
-0.0582886
-0.0572205
-0.0558472
-0.0541687
-0.052948
-0.0518799
-0.0508118
-0.0497437
-0.0492859
-0.0488281
-0.0488281
-0.0494385
-0.0500488
-0.0500488
-0.0511169
-0.0517273
-0.0526428
-0.0523376
-0.0524902
-0.0524902
-0.0517273
-0.0506592
-0.0491333
-0.0482178
-0.0471497
-0.0460815
-0.0453186
-0.0442505
-0.0434875
-0.0431824
-0.0430298
-0.043335
-0.043335
-0.0436401
-0.0436401
-0.0442505
-0.0442505
-0.0444031
-0.0444031
-0.0439453
-0.0428772
-0.0418091
-0.040741
-0.0396729
-0.0387573
-0.0384521
-0.038147
-0.0379944
-0.0379944
-0.0379944
-0.0384521
-0.0395203
-0.039978
-0.0408936
-0.0413513
-0.0418091
-0.0415039
-0.0411987
-0.0408936
-0.0398254
-0.0387573
-0.0364685
-0.0349426
-0.0331116
-0.0314331
-0.0299072
-0.0283813
-0.0274658
-0.0267029
-0.0265503
-0.0268555
-0.027771
-0.0285339
-0.0292969
-0.0297546
-0.0305176
-0.0312805
-0.0320435
-0.0323486
-0.0325012
-0.0317383
-0.0309753
-0.0308228
-0.0300598
-0.0299072
-0.0299072
-0.0299072
-0.0297546
-0.0299072
-0.0302124
-0.0309753
-0.0317383
-0.0326538
-0.0331116
-0.0335693
-0.0337219
-0.0340271
-0.0334167
-0.0328064
-0.0315857
-0.0300598
-0.0282288
-0.0263977
-0.0244141
-0.0227356
-0.0213623
-0.0204468
-0.0192261
-0.0189209
-0.0186157
-0.0189209
-0.0196838
-0.020752
-0.0216675
-0.0231934
-0.0244141
-0.0256348
-0.0265503
-0.0270081
-0.0279236
-0.027771
-0.0271606
-0.0270081
-0.0270081
-0.0265503
-0.0260925
-0.0260925
-0.0257874
-0.0256348
-0.0257874
-0.0262451
-0.0271606
-0.027771
-0.0276184
-0.0279236
-0.0288391
-0.0288391
-0.0286865
-0.0285339
-0.027771
-0.0268555
-0.0254822
-0.0241089
-0.0227356
-0.0213623
-0.0205994
-0.0198364
-0.0190735
-0.0189209
-0.0189209
-0.0190735
-0.0196838
-0.0204468
-0.0212097
-0.0213623
-0.0222778
-0.0228882
-0.0227356
-0.022583
-0.0215149
-0.0204468
-0.0193787
-0.0180054
-0.0170898
-0.0167847
-0.0158691
-0.0151062
-0.0151062
-0.0146484
-0.0149536
-0.0152588
-0.0164795
-0.0175476
-0.0183105
-0.0190735
-0.0198364
-0.020752
-0.0215149
-0.0213623
-0.0219727
-0.0216675
-0.020752
-0.0195312
-0.0184631
-0.0178528
-0.0170898
-0.0163269
-0.0158691
-0.0152588
-0.0152588
-0.0158691
-0.0158691
-0.0163269
-0.0166321
-0.0175476
-0.0180054
-0.0184631
-0.0184631
-0.0186157
-0.0183105
-0.0177002
-0.0167847
-0.0157166
-0.0154114
-0.0146484
-0.0143433
-0.0143433
-0.0143433
-0.014801
-0.0151062
-0.0161743
-0.017395
-0.018158
-0.0189209
-0.0196838
-0.0204468
-0.0209045
-0.020752
-0.0209045
-0.0202942
-0.0195312
-0.0180054
-0.0164795
-0.0151062
-0.0135803
-0.0126648
-0.0117493
-0.0109863
-0.0102234
-0.00946045
-0.00961304
-0.00915527
-0.00900269
-0.00808716
-0.00747681
-0.00671387
-0.00534058
-0.00366211
-0.00167847
0.00106812
0.00396729
0.00747681
0.0111389
0.0144958
0.018158
0.0215149
0.0244141
0.0276184
0.0306702
0.0332642
0.0350952
0.0369263
0.038147
0.0392151
0.0398254
0.0405884
0.040741
0.0413513
0.0419617
0.042572
0.0445557
0.0457764
0.04776
0.0495911
0.0514221
0.0532532
0.0547791
0.0563049
0.0582886
0.059967
0.0617981
0.0634766
0.0656128
0.068512
0.0718689
0.0752258
0.0798035
0.0848389
0.0898743
0.0947571
0.100861
0.106354
0.111389
0.115814
0.119781
0.122375
0.124359
0.125427
0.12558
0.124512
0.121613
0.117493
0.112457
0.106049
0.0982666
0.0904846
0.0816345
0.0732422
0.0640869
0.0552368
0.0465393
0.0386047
0.030365
0.0221252
0.0137329
0.00549316
-0.00213623
-0.00961304
-0.0170898
-0.0238037
-0.0302124
-0.0367737
-0.0421143
-0.0469971
-0.0517273
-0.0556946
-0.0588989
-0.0611877
-0.0631714
-0.0645447
-0.0648499
-0.0646973
-0.0643921
-0.0642395
-0.0637817
-0.0639343
-0.0636292
-0.0637817
-0.0637817
-0.0640869
-0.0650024
-0.0657654
-0.0668335
-0.0675964
-0.0682068
-0.0692749
-0.0697327
-0.0700378
-0.070343
-0.0701904
-0.0695801
-0.0682068
-0.0672913
-0.065918
-0.0650024
-0.0634766
-0.0627136
-0.0621033
-0.0610352
-0.06073
-0.0602722
-0.0602722
-0.0602722
-0.0601196
-0.059967
-0.059967
-0.0595093
-0.0588989
-0.0578308
-0.0570679
-0.0553894
-0.0534058
-0.0511169
-0.0495911
-0.0476074
-0.0460815
-0.0447083
-0.043335
-0.0421143
-0.0415039
-0.0415039
-0.0421143
-0.0422668
-0.042572
-0.043335
-0.0437927
-0.0431824
-0.0418091
-0.0395203
-0.0358582
-0.030365
-0.0234985
-0.0151062
-0.00488281
0.00656128
0.0201416
0.0358582
0.0540161
0.0752258
0.100555
0.129547
0.164185
0.203247
0.248718
0.299683
0.35553
0.417328
0.484009
0.555267
0.631104
0.710754
0.793762
0.878754
0.965424
1.05225
1.13861
1.22253
1.30234
1.37604
1.44119
1.49536
1.53763
1.5654
1.57867
1.57562
1.55624
1.52054
1.46912
1.40305
1.32294
1.23001
1.12671
1.01379
0.89386
0.767517
0.63858
0.508728
0.380554
0.2565
0.138702
0.0282288
-0.0724792
-0.162354
-0.239563
-0.304565
-0.356445
-0.394897
-0.421448
-0.436249
-0.440216
-0.434875
-0.422211
-0.40329
-0.380402
-0.354767
-0.328217
-0.301819
-0.276489
-0.252838
-0.232239
-0.215149
-0.200958
-0.189056
-0.181122
-0.175171
-0.171967
-0.170135
-0.169983
-0.170746
-0.172729
-0.174103
-0.175781
-0.177612
-0.179749
-0.181732
-0.183563
-0.184784
-0.186157
-0.186768
-0.187683
-0.187988
-0.189209
-0.189514
-0.189514
-0.189209
-0.188293
-0.187683
-0.186005
-0.184174
-0.182037
-0.178986
-0.175629
-0.172577
-0.169678
-0.166321
-0.163422
-0.160828
-0.158081
-0.155487
-0.153351
-0.151215
-0.149994
-0.148315
-0.147247
-0.145569
-0.144348
-0.142517
-0.140991
-0.139008
-0.136566
-0.13382
-0.13092
-0.127716
-0.124664
-0.12207
-0.119629
-0.11734
-0.114899
-0.11322
-0.111847
-0.110474
-0.109253
-0.10788
-0.107269
-0.105286
-0.104523
-0.102692
-0.100861
-0.0993347
-0.0964355
-0.0933838
-0.0904846
-0.0875854
-0.0849915
-0.0823975
-0.0802612
-0.078125
-0.0761414
-0.0743103
-0.0727844
-0.0718689
-0.0712585
-0.0704956
-0.0700378
-0.0694275
-0.0692749
-0.068512
-0.0671387
-0.0660706
-0.0642395
-0.0619507
-0.0590515
-0.0566101
-0.0540161
-0.0515747
-0.0494385
-0.0473022
-0.0453186
-0.0434875
-0.0418091
-0.0405884
-0.0395203
-0.0387573
-0.0376892
-0.0366211
-0.0350952
-0.0337219
-0.0325012
-0.0306702
-0.0285339
-0.0259399
-0.0228882
-0.0202942
-0.0177002
-0.015564
-0.0132751
-0.0114441
-0.00930786
-0.00762939
-0.00595093
-0.00457764
-0.00396729
-0.00335693
-0.00228882
-0.00106812
0.0
0.00167847
0.00366211
0.00549316
0.00808716
0.0111389
0.0143433
0.0175476
0.0209045
0.0241089
0.0265503
0.0292969
0.0318909
0.0346375
0.0369263
0.0387573
0.039978
0.0416565
0.0439453
0.0453186
0.0473022
0.0495911
0.0521851
0.0547791
0.0578308
0.0616455
0.0662231
0.0700378
0.0743103
0.0784302
0.0820923
0.0862122
0.0904846
0.0942993
0.0979614
0.101166
0.104218
0.107269
0.111084
0.114288
0.117493
0.12146
0.124969
0.129547
0.133972
0.139008
0.144043
0.149689
0.154266
0.159149
0.163879
0.168304
0.172577
0.177002
0.181122
0.184326
0.187836
0.191345
0.195007
0.198364
0.202332
0.206451
0.210571
0.215454
0.220337
0.226135
0.232239
0.238037
0.243835
0.249786
0.255127
0.26062
0.26535
0.269775
0.2742
0.277863
0.280914
0.284271
0.28717
0.289917
0.292664
0.295105
0.297546
0.30014
0.303192
0.305786
0.308838
0.311737
0.313873
0.315399
0.317383
0.317993
0.318909
0.318909
0.318146
0.316772
0.315094
0.312958
0.310364
0.308075
0.305023
0.301819
0.298462
0.295258
0.291595
0.288391
0.285187
0.281067
0.276947
0.271454
0.265503
0.259247
0.252686
0.244751
0.236359
0.227051
0.217133
0.206757
0.196075
0.184937
0.173798
0.162506
0.151215
0.139618
0.128479
0.117493
0.106201
0.0953674
0.0834656
0.0723267
0.0601196
0.0486755
0.0370789
0.025177
0.0132751
0.00106812
-0.0105286
-0.022583
-0.0341797
-0.0453186
-0.0566101
-0.0665283
-0.0764465
-0.085907
-0.0941467
-0.102081
-0.109406
-0.116119
-0.122986
-0.129547
-0.135651
-0.141296
-0.147705
-0.153198
-0.159607
-0.16571
-0.171356
-0.177612
-0.183105
-0.187988
-0.192566
-0.196838
-0.2005
-0.2034
-0.205841
-0.20752
-0.208588
-0.209961
-0.210571
-0.211029
-0.211945
-0.21225
-0.213165
-0.213623
-0.214386
-0.215302
-0.216217
-0.217285
-0.218048
-0.218658
-0.219269
-0.219421
-0.219574
-0.219116
-0.218506
-0.217133
-0.215302
-0.213318
-0.211639
-0.210114
-0.20813
-0.206757
-0.205688
-0.204315
-0.203552
-0.203094
-0.203247
-0.203247
-0.202484
-0.202789
-0.202026
-0.201416
-0.2005
-0.199738
-0.198212
-0.196228
-0.194702
-0.192566
-0.190887
-0.189362
-0.187836
-0.186768
-0.185699
-0.184479
-0.183868
-0.183411
-0.182953
-0.182648
-0.181885
-0.181732
-0.180969
-0.180206
-0.178986
-0.177765
-0.175781
-0.173798
-0.170898
-0.168762
-0.166779
-0.164795
-0.162964
-0.161438
-0.159607
-0.158539
-0.157471
-0.156555
-0.156097
-0.155945
-0.155182
-0.155029
-0.153809
-0.152893
-0.151825
-0.150452
-0.148315
-0.145721
-0.143127
-0.139923
-0.137787
-0.135193
-0.133057
-0.131226
-0.128784
-0.127106
-0.125885
-0.124512
-0.123749
-0.122681
-0.121918
-0.121307
-0.120239
-0.119629
-0.118561
-0.11734
-0.115356
-0.113678
-0.110931
-0.108337
-0.106354
-0.104065
-0.102386
-0.100098
-0.0982666
-0.0964355
-0.0956726
-0.0944519
-0.0935364
-0.0930786
-0.0917053
-0.0907898
-0.0901794
-0.0888062
-0.0878906
-0.0865173
-0.0849915
-0.0830078
-0.0804138
-0.0787354
-0.0767517
-0.0752258
-0.0741577
-0.072937
-0.0721741
-0.0717163
-0.0712585
-0.0717163
-0.0720215
-0.0727844
-0.0727844
-0.0735474
-0.0738525
-0.0740051
-0.0732422
-0.0733948
-0.0718689
-0.0701904
-0.0686646
-0.0671387
-0.0656128
-0.0643921
-0.0634766
-0.0621033
-0.0616455
-0.0610352
-0.0610352
-0.0611877
-0.0613403
-0.0619507
-0.0622559
-0.0628662
-0.0630188
-0.0631714
-0.0631714
-0.0628662
-0.0621033
-0.0610352
-0.0598145
-0.0584412
-0.057373
-0.0570679
-0.0561523
-0.0558472
-0.0553894
-0.0550842
-0.0558472
-0.0563049
-0.057373
-0.0584412
-0.0593567
-0.0598145
-0.0608826
-0.0614929
-0.0617981
-0.0617981
-0.0610352
-0.0598145
-0.0584412
-0.057373
-0.0564575
-0.055542
-0.0547791
-0.0544739
-0.0541687
-0.0537109
-0.0541687
-0.0544739
-0.0552368
-0.0558472
-0.0570679
-0.0579834
-0.0588989
-0.0593567
-0.0596619
-0.0605774
-0.0605774
-0.0601196
-0.0593567
-0.0585938
-0.0582886
-0.0576782
-0.057373
-0.0572205
-0.057373
-0.057373
-0.0578308
-0.0582886
-0.0598145
-0.0605774
-0.0608826
-0.0622559
-0.0628662
-0.0631714
-0.0639343
-0.0639343
-0.063324
-0.0627136
-0.0614929
-0.0604248
-0.0596619
-0.0588989
-0.0584412
-0.058136
-0.0575256
-0.0578308
-0.0584412
-0.0592041
-0.059967
-0.0610352
-0.0619507
-0.062561
-0.0634766
-0.0634766
-0.0636292
-0.0636292
-0.0628662
-0.0617981
-0.0605774
-0.0596619
-0.0585938
-0.0575256
-0.0567627
-0.0566101
-0.0564575
-0.0561523
-0.0564575
-0.0570679
-0.0579834
-0.0590515
-0.0598145
-0.0605774
-0.0613403
-0.0621033
-0.0624084
-0.0622559
-0.0621033
-0.0613403
-0.0602722
-0.0593567
-0.058136
-0.0578308
-0.0567627
-0.0559998
-0.0556946
-0.0550842
-0.0552368
-0.0553894
-0.0556946
-0.0564575
-0.0566101
-0.0569153
-0.0569153
-0.0572205
-0.0569153
-0.0564575
-0.0556946
-0.0541687
-0.0526428
-0.0514221
-0.0500488
-0.0492859
-0.0483704
-0.0480652
-0.0474548
-0.0473022
-0.0474548
-0.0480652
-0.0492859
-0.0500488
-0.0505066
-0.0517273
-0.0520325
-0.0521851
-0.052948
-0.0526428
-0.0518799
-0.0512695
-0.0505066
-0.0491333
-0.0482178
-0.0473022
-0.0462341
-0.045929
-0.0460815
-0.0457764
-0.0454712
-0.0462341
-0.0468445
-0.0479126
-0.0482178
-0.0488281
-0.0486755
-0.0486755
-0.0489807
-0.0480652
-0.0474548
-0.0462341
-0.0450134
-0.0437927
-0.0428772
-0.0418091
-0.0413513
-0.0410461
-0.0401306
-0.0401306
-0.0404358
-0.0416565
-0.0424194
-0.0436401
-0.0444031
-0.0454712
-0.0462341
-0.0469971
-0.0479126
-0.04776
-0.0474548
-0.0465393
-0.0456238
-0.0444031
-0.0434875
-0.0424194
-0.0419617
-0.0410461
-0.040741
-0.039978
-0.0402832
-0.0408936
-0.0408936
-0.0415039
-0.0419617
-0.042572
-0.0430298
-0.0431824
-0.043335
-0.043335
-0.0428772
-0.0419617
-0.0410461
-0.0401306
-0.0390625
-0.0387573
-0.0378418
-0.0372314
-0.0366211
-0.0361633
-0.0364685
-0.0369263
-0.0372314
-0.037384
-0.0378418
-0.0379944
-0.0384521
-0.0386047
-0.0382996
-0.0375366
-0.0370789
-0.0357056
-0.03479
-0.0335693
-0.032959
-0.0318909
-0.0312805
-0.0309753
-0.0311279
-0.0311279
-0.032196
-0.0332642
-0.0341797
-0.0358582
-0.0370789
-0.038147
-0.0392151
-0.0395203
-0.0404358
-0.040741
-0.0402832
-0.0395203
-0.0386047
-0.0376892
-0.0366211
-0.0360107
-0.03479
-0.0341797
-0.0335693
-0.0332642
-0.0332642
-0.0334167
-0.0343323
-0.0341797
-0.0344849
-0.035553
-0.0349426
-0.0354004
-0.0352478
-0.03479
-0.0335693
-0.0323486
-0.0306702
-0.0297546
-0.0285339
-0.0273132
-0.0265503
-0.0253296
-0.0250244
-0.0247192
-0.0248718
-0.025177
-0.0257874
-0.0260925
-0.0268555
-0.0271606
-0.0276184
-0.0280762
-0.0274658
-0.0273132
-0.0263977
-0.0254822
-0.0242615
-0.0230408
-0.0218201
-0.0210571
-0.020752
-0.0204468
-0.0204468
-0.0205994
-0.0210571
-0.0221252
-0.0231934
-0.0241089
-0.0253296
-0.0259399
-0.0268555
-0.0271606
-0.0274658
-0.0273132
-0.0265503
-0.0256348
-0.0241089
-0.0230408
-0.0218201
-0.020752
-0.0195312
-0.0189209
-0.0187683
-0.0183105
-0.0178528
-0.0184631
-0.0189209
-0.0198364
-0.0202942
-0.0209045
-0.0213623
-0.0219727
-0.0219727
-0.0219727
-0.0216675
-0.0212097
-0.0201416
-0.0193787
-0.0187683
-0.0180054
-0.0180054
-0.017395
-0.0169373
-0.0166321
-0.0175476
-0.0180054
-0.0186157
-0.0192261
-0.019989
-0.0204468
-0.0205994
-0.020752
-0.0202942
-0.019989
-0.0187683
-0.017395
-0.0160217
-0.0146484
-0.0128174
-0.012207
-0.0114441
-0.0100708
-0.00991821
-0.00930786
-0.00961304
-0.00976562
-0.0109863
-0.0114441
-0.0125122
-0.0132751
-0.0138855
-0.0143433
-0.0152588
-0.0157166
-0.0152588
-0.0149536
-0.0140381
-0.0132751
-0.0126648
-0.0123596
-0.012207
-0.0119019
-0.0115967
-0.0115967
-0.0120544
-0.0131226
-0.0140381
-0.0151062
-0.0160217
-0.0164795
-0.0170898
-0.0170898
-0.0178528
-0.0170898
-0.0164795
-0.0157166
-0.0141907
-0.0131226
-0.0120544
-0.0108337
-0.00976562
-0.00915527
-0.00762939
-0.00656128
-0.00564575
-0.00457764
-0.00396729
-0.00244141
