0.00335693
0.00457764
0.00579834
0.0062561
0.00671387
0.00640869
0.0062561
0.00549316
0.0038147
0.00305176
0.00152588
-0.000152588
-0.000915527
-0.00152588
-0.00244141
-0.00259399
-0.00244141
-0.00198364
-0.00137329
-0.000152588
0.000762939
0.00106812
0.0012207
0.00137329
0.00106812
0.000610352
-0.000762939
-0.00213623
-0.00366211
-0.00473022
-0.0062561
-0.00762939
-0.00839233
-0.00869751
-0.00854492
-0.00869751
-0.00762939
-0.0062561
-0.00473022
-0.00350952
-0.00183105
-0.000610352
0.000305176
0.0012207
0.00152588
0.00152588
0.000915527
0.000152588
-0.00106812
-0.00198364
-0.00289917
-0.00396729
-0.00442505
-0.00473022
-0.00473022
-0.00396729
-0.00335693
-0.00213623
-0.000610352
0.000610352
0.00213623
0.00305176
0.00396729
0.00411987
0.00427246
0.00366211
0.00305176
0.00183105
0.000610352
-0.00106812
-0.00289917
-0.00427246
-0.00549316
-0.0062561
-0.00656128
-0.00671387
-0.0062561
-0.00534058
-0.00411987
-0.00274658
-0.00137329
-0.000152588
0.000457764
0.000762939
0.00137329
0.00152588
0.000762939
0.0
-0.000762939
-0.00152588
-0.00244141
-0.00350952
-0.00396729
-0.00411987
-0.00411987
-0.0038147
-0.00335693
-0.00183105
-0.000305176
0.000915527
0.00244141
0.00335693
0.00427246
0.00488281
0.00518799
0.00488281
0.00427246
0.00289917
0.00198364
0.000457764
-0.000915527
-0.00213623
-0.00320435
-0.00366211
-0.00411987
-0.0038147
-0.00350952
-0.00274658
-0.00152588
-0.000457764
0.000762939
0.0012207
0.00244141
0.00259399
0.00228882
0.00213623
0.00198364
0.000610352
-0.000762939
-0.00198364
-0.00305176
-0.00442505
-0.0050354
-0.00534058
-0.00534058
-0.00488281
-0.00442505
-0.00335693
-0.00183105
-0.000457764
0.000610352
0.00167847
0.00259399
0.00350952
0.00366211
0.00335693
0.00289917
0.00213623
0.000610352
-0.000457764
-0.00152588
-0.00228882
-0.00320435
-0.00335693
-0.00320435
-0.00289917
-0.00167847
-0.000610352
0.000457764
0.00167847
0.00305176
0.00427246
0.00442505
0.00534058
0.00534058
0.00488281
0.00411987
0.00320435
0.00167847
0.000305176
-0.0012207
-0.00213623
-0.00289917
-0.0038147
-0.00411987
-0.00396729
-0.00320435
-0.00244141
-0.00137329
-0.000305176
0.00106812
0.00244141
0.00335693
0.00320435
0.00350952
0.00335693
0.00289917
0.00183105
0.000610352
-0.000457764
-0.00213623
-0.00305176
-0.0038147
-0.00442505
-0.00411987
-0.00396729
-0.00350952
-0.00228882
-0.00106812
0.000610352
0.00137329
0.00335693
0.00350952
0.00427246
0.00427246
0.00396729
0.00335693
0.00213623
0.000915527
-0.000305176
-0.00152588
-0.00305176
-0.0038147
-0.00396729
-0.00427246
-0.00427246
-0.00366211
-0.00274658
-0.00167847
-0.000152588
0.0012207
0.00198364
0.00289917
0.00305176
0.00305176
0.00320435
0.00198364
0.00106812
-0.000305176
-0.00167847
-0.00335693
-0.00427246
-0.00579834
-0.0062561
-0.0062561
-0.00640869
-0.00579834
-0.00488281
-0.00366211
-0.00244141
-0.0012207
-0.000152588
0.000915527
0.00167847
0.00183105
0.00198364
0.00152588
0.000762939
0.0
-0.00106812
-0.00198364
-0.00289917
-0.00366211
-0.00396729
-0.0038147
-0.00350952
-0.00305176
-0.00183105
-0.000915527
0.000610352
0.00183105
0.00289917
0.00335693
0.00335693
0.00335693
0.00289917
0.00213623
0.000610352
-0.000457764
-0.00183105
-0.00366211
-0.00442505
-0.00534058
-0.00549316
-0.00595093
-0.00549316
-0.00457764
-0.00350952
-0.00152588
-0.000152588
0.00137329
0.00289917
0.00366211
0.00442505
0.00488281
0.00488281
0.00473022
0.00396729
0.00274658
0.00183105
0.000762939
-0.000457764
-0.0012207
-0.00152588
-0.00167847
-0.00152588
-0.000915527
0.0
0.00152588
0.00289917
0.00396729
0.0050354
0.00564575
0.00610352
0.00610352
0.00549316
0.0050354
0.00320435
0.00198364
0.000610352
-0.000762939
-0.00228882
-0.00320435
-0.00411987
-0.00427246
-0.00411987
-0.00396729
-0.00274658
-0.00198364
-0.0012207
0.000305176
0.000915527
0.00213623
0.00228882
0.00198364
0.00213623
0.00137329
0.000457764
-0.000457764
-0.00183105
-0.00274658
-0.00366211
-0.00411987
-0.00488281
-0.00488281
-0.00457764
-0.00366211
-0.00305176
-0.00137329
-0.000152588
0.000915527
0.00198364
0.00274658
0.00320435
0.00305176
0.00244141
0.00183105
0.000915527
-0.000152588
-0.00152588
-0.00320435
-0.00442505
-0.00518799
-0.00579834
-0.00564575
-0.00564575
-0.00488281
-0.00350952
-0.00213623
-0.000610352
0.000610352
0.00167847
0.00244141
0.00320435
0.00320435
0.00289917
0.00213623
0.0012207
-0.000305176
-0.0012207
-0.00259399
-0.00335693
-0.00427246
-0.00457764
-0.00534058
-0.00488281
-0.00427246
-0.00320435
-0.00228882
-0.000915527
-0.000152588
0.0012207
0.00198364
0.00213623
0.00228882
0.00228882
0.00183105
0.000762939
-0.000762939
-0.00198364
-0.00335693
-0.00473022
-0.00564575
-0.0062561
-0.00640869
-0.0062561
-0.00549316
-0.00411987
-0.00305176
-0.00137329
-0.000152588
0.000610352
0.00137329
0.00183105
0.00183105
0.00137329
0.000915527
-0.000152588
-0.00183105
-0.00320435
-0.00442505
-0.00579834
-0.00671387
-0.00778198
-0.00778198
-0.00762939
-0.00701904
-0.00579834
-0.00457764
-0.00335693
-0.00167847
-0.000915527
0.0
0.000610352
0.000457764
0.000152588
-0.000152588
-0.0012207
-0.00259399
-0.0038147
-0.00518799
-0.00595093
-0.00640869
-0.00686646
-0.00671387
-0.00640869
-0.00549316
-0.00427246
-0.00244141
-0.00106812
0.000152588
0.00152588
0.00244141
0.00305176
0.00305176
0.00305176
0.00244141
0.00152588
0.000457764
-0.00106812
-0.00213623
-0.00289917
-0.00305176
-0.0038147
-0.00366211
-0.00305176
-0.00228882
-0.0012207
-0.000152588
0.0012207
0.00259399
0.00366211
0.00442505
0.00473022
0.00488281
0.00457764
0.00366211
0.00274658
0.00106812
0.000152588
-0.00152588
-0.00259399
-0.00350952
-0.00427246
-0.00488281
-0.00488281
-0.00411987
-0.00350952
-0.00228882
-0.000915527
0.0
0.00152588
0.00198364
0.00244141
0.00274658
0.00274658
0.00213623
0.00137329
0.000152588
-0.0012207
-0.00213623
-0.00320435
-0.00396729
-0.00427246
-0.00396729
-0.0038147
-0.00274658
-0.00213623
-0.000762939
0.000762939
0.00213623
0.00274658
0.0038147
0.00396729
0.00442505
0.00366211
0.00350952
0.00228882
0.000915527
-0.000152588
-0.00137329
-0.00228882
-0.00320435
-0.0038147
-0.00411987
-0.0038147
-0.00289917
-0.00198364
-0.000915527
0.000610352
0.00213623
0.00274658
0.00350952
0.00366211
0.0038147
0.00366211
0.00289917
0.00213623
0.000457764
-0.000762939
-0.00198364
-0.00335693
-0.00427246
-0.00488281
-0.00564575
-0.00534058
-0.00457764
-0.00335693
-0.00244141
-0.000610352
0.000457764
0.00167847
0.00274658
0.00335693
0.00335693
0.00350952
0.00259399
0.00198364
0.00106812
0.0
-0.00106812
-0.00167847
-0.00244141
-0.00274658
-0.00289917
-0.00274658
-0.00198364
-0.0012207
-0.000152588
0.00106812
0.00213623
0.00320435
0.0038147
0.00366211
0.00350952
0.00335693
0.00274658
0.00152588
0.000305176
-0.000915527
-0.00244141
-0.00366211
-0.00427246
-0.00488281
-0.00549316
-0.00534058
-0.00442505
-0.00350952
-0.00213623
-0.000762939
0.000152588
0.0012207
0.00198364
0.00244141
0.00198364
0.00213623
0.0012207
0.000457764
-0.00106812
-0.00244141
-0.00366211
-0.00488281
-0.00610352
-0.00640869
-0.00671387
-0.00686646
-0.00656128
-0.00564575
-0.00442505
-0.00320435
-0.00198364
-0.000762939
-0.000152588
0.000457764
0.000457764
0.000152588
0.000152588
-0.000915527
-0.00198364
-0.00335693
-0.00427246
-0.0050354
-0.00610352
-0.00610352
-0.00640869
-0.00610352
-0.00518799
-0.00396729
-0.00259399
-0.00137329
0.000152588
0.00106812
0.00183105
0.00213623
0.00167847
0.00183105
0.00106812
0.000305176
-0.00152588
-0.00244141
-0.00411987
-0.00488281
-0.00579834
-0.00595093
-0.00595093
-0.00534058
-0.00457764
-0.00289917
-0.00167847
-0.000457764
0.00137329
0.00259399
0.00320435
0.00411987
0.00442505
0.00427246
0.00396729
0.00305176
0.00198364
0.000762939
-0.000457764
-0.00152588
-0.00213623
-0.00274658
-0.00289917
-0.00274658
-0.00228882
-0.00137329
-0.000152588
0.0012207
0.00213623
0.00335693
0.00411987
0.00442505
0.00488281
0.00442505
0.0038147
0.00259399
0.00137329
0.000152588
-0.00106812
-0.00198364
-0.00320435
-0.00366211
-0.0038147
-0.00350952
-0.00320435
-0.0012207
-0.000762939
0.00106812
0.00213623
0.00305176
0.0038147
0.00411987
0.00411987
0.00366211
0.00320435
0.00183105
0.000610352
-0.000762939
-0.00183105
-0.00305176
-0.00427246
-0.00442505
-0.00457764
-0.00457764
-0.00396729
-0.00259399
-0.00137329
-0.000152588
0.00137329
0.00244141
0.00320435
0.00350952
0.00396729
0.0038147
0.00335693
0.00213623
0.00106812
-0.000457764
-0.00198364
-0.00289917
-0.00411987
-0.00488281
-0.00488281
-0.00488281
-0.00442505
-0.00442505
-0.136108
-0.135803
-0.134735
-0.133057
-0.131531
-0.130157
-0.128937
-0.127258
-0.126801
-0.126953
-0.126648
-0.127411
-0.127869
-0.128632
-0.1297
-0.130463
-0.13092
-0.131378
-0.131378
-0.13092
-0.13031
-0.129395
-0.128937
-0.128021
-0.127563
-0.126648
-0.126495
-0.12619
-0.126038
-0.125732
-0.125275
-0.123901
-0.121307
-0.116577
-0.109558
-0.0991821
-0.0848389
-0.0663757
-0.043335
-0.0149536
0.018158
0.0561523
0.098877
0.146484
0.197296
0.252228
0.310516
0.371399
0.435486
0.500031
0.56488
0.628815
0.689697
0.746155
0.797119
0.841522
0.878448
0.907898
0.929108
0.94162
0.944061
0.936127
0.916443
0.885315
0.843048
0.789642
0.726318
0.654144
0.574493
0.488892
0.399475
0.306702
0.21347
0.120392
0.0306702
-0.0556946
-0.136414
-0.210114
-0.275421
-0.331268
-0.377197
-0.413361
-0.439606
-0.456085
-0.464325
-0.463715
-0.456696
-0.442963
-0.425415
-0.403748
-0.379944
-0.354309
-0.328674
-0.30304
-0.27771
-0.254211
-0.231934
-0.211792
-0.194244
-0.17807
-0.16449
-0.153351
-0.144806
-0.13916
-0.135345
-0.133972
-0.134125
-0.136261
-0.139923
-0.145111
-0.151215
-0.158234
-0.165405
-0.172577
-0.179596
-0.185089
-0.189972
-0.193939
-0.19577
-0.196686
-0.196075
-0.194855
-0.192261
-0.189667
-0.18692
-0.184326
-0.18158
-0.179749
-0.177917
-0.177002
-0.177307
-0.177155
-0.178375
-0.178833
-0.180054
-0.181122
-0.181427
-0.181274
-0.180664
-0.179291
-0.177917
-0.175934
-0.173645
-0.171967
-0.169983
-0.167999
-0.166626
-0.166168
-0.166473
-0.166931
-0.168762
-0.170288
-0.172424
-0.174866
-0.176544
-0.178528
-0.180206
-0.180511
-0.180664
-0.180206
-0.179138
-0.177307
-0.175171
-0.172729
-0.170441
-0.168304
-0.166779
-0.164948
-0.164795
-0.164948
-0.166016
-0.167236
-0.16922
-0.171661
-0.174103
-0.176392
-0.178833
-0.180969
-0.182648
-0.183868
-0.184174
-0.184784
-0.185089
-0.185699
-0.185547
-0.186157
-0.187073
-0.187988
-0.190125
-0.192413
-0.195465
-0.198669
-0.201416
-0.20462
-0.207367
-0.209503
-0.211792
-0.212708
-0.213165
-0.21286
-0.211945
-0.210571
-0.208588
-0.206146
-0.2034
-0.201416
-0.198975
-0.197449
-0.196075
-0.19516
-0.19516
-0.195618
-0.196381
-0.197449
-0.198975
-0.200195
-0.201721
-0.202789
-0.203247
-0.203094
-0.202026
-0.201111
-0.199432
-0.198059
-0.19577
-0.193939
-0.192261
-0.19104
-0.19043
-0.190582
-0.191956
-0.193176
-0.195007
-0.197601
-0.200043
-0.2034
-0.205688
-0.20813
-0.209503
-0.210571
-0.210724
-0.209503
-0.208435
-0.206451
-0.20401
-0.200806
-0.198059
-0.19516
-0.192413
-0.189972
-0.187836
-0.186157
-0.184631
-0.183105
-0.180511
-0.178528
-0.176086
-0.172729
-0.168304
-0.163574
-0.158081
-0.151978
-0.145874
-0.139923
-0.133667
-0.127869
-0.122528
-0.11734
-0.113373
-0.109558
-0.106659
-0.104523
-0.102081
-0.100555
-0.0982666
-0.0967407
-0.0949097
-0.0932312
-0.0904846
-0.0875854
-0.0840759
-0.0799561
-0.0761414
-0.0720215
-0.0680542
-0.0639343
-0.0601196
-0.0570679
-0.0538635
-0.0523376
-0.0502014
-0.0492859
-0.0482178
-0.0471497
-0.0460815
-0.0445557
-0.0422668
-0.0401306
-0.037384
-0.0334167
-0.0292969
-0.0247192
-0.0195312
-0.0149536
-0.010376
-0.00564575
-0.00198364
0.0012207
0.00366211
0.00549316
0.00686646
0.00717163
0.00732422
0.00747681
0.00717163
0.00717163
0.00717163
0.00793457
0.00900269
0.0111389
0.0134277
0.0160217
0.0190735
0.0222778
0.0247192
0.0271606
0.0292969
0.0305176
0.0309753
0.0305176
0.0288391
0.0271606
0.0248718
0.0221252
0.0189209
0.0166321
0.0140381
0.0114441
0.0105286
0.00946045
0.00961304
0.0100708
0.0105286
0.0112915
0.0126648
0.0131226
0.0128174
0.0126648
0.0112915
0.00930786
0.00671387
0.00366211
-0.000152588
-0.00396729
-0.00808716
-0.0119019
-0.0157166
-0.0192261
-0.0219727
-0.0244141
-0.0262451
-0.0274658
-0.0280762
-0.0288391
-0.0286865
-0.0280762
-0.027771
-0.0273132
-0.0271606
-0.0270081
-0.0268555
-0.0273132
-0.0274658
-0.0274658
-0.0282288
-0.0283813
-0.0286865
-0.0289917
-0.0291443
-0.0291443
-0.0283813
-0.0283813
-0.0279236
-0.0288391
-0.0297546
-0.0320435
-0.03479
-0.0390625
-0.0447083
-0.0512695
-0.0590515
-0.067749
-0.0772095
-0.0869751
-0.0971985
-0.106964
-0.115814
-0.124512
-0.132294
-0.138702
-0.144196
-0.148773
-0.151978
-0.154572
-0.156097
-0.157013
-0.158386
-0.159302
-0.160217
-0.161743
-0.163879
-0.165863
-0.168304
-0.170135
-0.172424
-0.174561
-0.176544
-0.178528
-0.179291
-0.180054
-0.179443
-0.179291
-0.178375
-0.17746
-0.175781
-0.175018
-0.173798
-0.172729
-0.172119
-0.171814
-0.171051
-0.170288
-0.16922
-0.167999
-0.166473
-0.16449
-0.161743
-0.159149
-0.15625
-0.152435
-0.148163
-0.144348
-0.141296
-0.138245
-0.135193
-0.132904
-0.131378
-0.129852
-0.129547
-0.13031
-0.132294
-0.134277
-0.137634
-0.140839
-0.144501
-0.14801
-0.151672
-0.154266
-0.155945
-0.156708
-0.155945
-0.154572
-0.15274
-0.149994
-0.146484
-0.142975
-0.139923
-0.136566
-0.133972
-0.131989
-0.131226
-0.130768
-0.130005
-0.130005
-0.130005
-0.129852
-0.1297
-0.129089
-0.128326
-0.126648
-0.124817
-0.122375
-0.119171
-0.116272
-0.11322
-0.109558
-0.106659
-0.103607
-0.101624
-0.100098
-0.0991821
-0.0985718
-0.0979614
-0.0976562
-0.0971985
-0.0965881
-0.09552
-0.0944519
-0.0927734
-0.0907898
-0.087738
-0.0852966
-0.0820923
-0.0788879
-0.0756836
-0.0735474
-0.0712585
-0.0694275
-0.0683594
-0.0682068
-0.0680542
-0.0688171
-0.0700378
-0.071106
-0.0724792
-0.0730896
-0.0735474
-0.0733948
-0.0721741
-0.0706482
-0.0682068
-0.0654602
-0.0614929
-0.0585938
-0.0547791
-0.0517273
-0.0486755
-0.0471497
-0.0457764
-0.045166
-0.0456238
-0.0463867
-0.0473022
-0.0492859
-0.0506592
-0.0523376
-0.0535583
-0.0546265
-0.055542
-0.0553894
-0.0547791
-0.0541687
-0.0521851
-0.0506592
-0.0486755
-0.0473022
-0.0456238
-0.0454712
-0.0448608
-0.0457764
-0.0469971
-0.0485229
-0.0505066
-0.0526428
-0.0546265
-0.0564575
-0.0578308
-0.0590515
-0.0598145
-0.0601196
-0.0598145
-0.0592041
-0.0582886
-0.0575256
-0.0572205
-0.0570679
-0.0576782
-0.0590515
-0.0608826
-0.0637817
-0.0671387
-0.0709534
-0.0753784
-0.0801086
-0.0837708
-0.0880432
-0.0918579
-0.0950623
-0.0967407
-0.0978088
-0.0979614
-0.0975037
-0.0959778
-0.0941467
-0.091095
-0.088501
-0.0848389
-0.0811768
-0.0775146
-0.0737
-0.070343
-0.0668335
-0.0639343
-0.0602722
-0.0569153
-0.0532532
-0.0495911
-0.0450134
-0.039978
-0.0346375
-0.0286865
-0.022583
-0.0163269
-0.0105286
-0.00579834
-0.000610352
0.00320435
0.00656128
0.00915527
0.0105286
0.0108337
0.0105286
0.00946045
0.00839233
0.00747681
0.00564575
0.00488281
0.00350952
0.00366211
0.00411987
0.00488281
0.00671387
0.00762939
0.00946045
0.0115967
0.0131226
0.0143433
0.0151062
0.0154114
0.014801
0.0134277
0.0114441
0.00900269
0.00686646
0.00427246
0.00198364
0.0
-0.00167847
-0.00305176
-0.00396729
-0.00427246
-0.00442505
-0.00366211
-0.00366211
-0.0038147
-0.00396729
-0.00579834
-0.00778198
-0.0106812
-0.0151062
-0.0201416
-0.0270081
-0.0340271
-0.0421143
-0.0498962
-0.0590515
-0.0683594
-0.0778198
-0.0871277
-0.096283
-0.105286
-0.113068
-0.121002
-0.128937
-0.135803
-0.142822
-0.149994
-0.156708
-0.163727
-0.170746
-0.177155
-0.183563
-0.189667
-0.195007
-0.19928
-0.203094
-0.205841
-0.207672
-0.208435
-0.20813
-0.207062
-0.205078
-0.202332
-0.199585
-0.196075
-0.192719
-0.189056
-0.18631
-0.183716
-0.181885
-0.180359
-0.179138
-0.178833
-0.178223
-0.177765
-0.177002
-0.175629
-0.174255
-0.171967
-0.168457
-0.164948
-0.16098
-0.15686
-0.151978
-0.147705
-0.143738
-0.140076
-0.136871
-0.134735
-0.132904
-0.131683
-0.131531
-0.131531
-0.131531
-0.131531
-0.132141
-0.132294
-0.131378
-0.130463
-0.128326
-0.12619
-0.123444
-0.120392
-0.117035
-0.113831
-0.110626
-0.10788
-0.105743
-0.104218
-0.103912
-0.104218
-0.105438
-0.107422
-0.110474
-0.11322
-0.116577
-0.119629
-0.122986
-0.125427
-0.127716
-0.128632
-0.128479
-0.128021
-0.126343
-0.122833
-0.118713
-0.112305
-0.103912
-0.0932312
-0.0794983
-0.0630188
-0.0419617
-0.0178528
0.0106812
0.0430298
0.0801086
0.120392
0.1651
0.214081
0.266113
0.321045
0.379028
0.438232
0.497742
0.55542
0.610046
0.659485
0.702972
0.739441
0.768127
0.788116
0.800018
0.802917
0.796204
0.779419
0.752411
0.715942
0.669708
0.615845
0.55481
0.487823
0.416565
0.342255
0.265961
0.188599
0.112
0.0367737
-0.0364685
-0.106506
-0.172424
-0.233154
-0.288239
-0.335999
-0.376129
-0.408325
-0.432892
-0.448914
-0.458221
-0.45929
-0.453949
-0.442047
-0.426483
-0.406647
-0.384064
-0.35965
-0.334778
-0.309296
-0.284882
-0.262146
-0.241089
-0.222473
-0.205841
-0.19165
-0.179901
-0.169983
-0.162354
-0.156555
-0.152283
-0.149384
-0.146637
-0.145264
-0.145111
-0.145111
-0.145874
-0.147247
-0.148926
-0.151215
-0.153198
-0.156097
-0.159454
-0.162354
-0.165863
-0.16861
-0.171051
-0.172882
-0.173798
-0.174561
-0.173645
-0.172272
-0.170441
-0.167542
-0.164337
-0.160828
-0.157318
-0.153351
-0.149689
-0.146332
-0.143433
-0.141449
-0.140076
-0.139313
-0.139618
-0.139923
-0.140686
-0.140991
-0.141754
-0.141907
-0.141449
-0.140381
-0.138397
-0.135956
-0.133057
-0.129547
-0.126038
-0.122681
-0.119171
-0.116425
-0.114441
-0.113373
-0.112457
-0.112915
-0.113525
-0.114746
-0.116425
-0.117798
-0.119476
-0.120697
-0.12146
-0.122223
-0.12207
-0.12146
-0.120697
-0.119629
-0.118256
-0.11734
-0.115814
-0.114899
-0.113525
-0.11322
-0.112915
-0.113068
-0.113983
-0.114899
-0.115967
-0.11734
-0.118103
-0.118713
-0.119171
-0.119171
-0.118256
-0.116882
-0.115204
-0.11322
-0.111237
-0.109253
-0.107727
-0.106049
-0.104828
-0.104523
-0.104675
-0.105286
-0.106659
-0.108185
-0.110016
-0.111847
-0.113373
-0.115051
-0.115662
-0.115967
-0.115814
-0.115509
-0.114594
-0.112762
-0.112305
-0.111237
-0.109863
-0.109711
-0.110016
-0.111084
-0.112762
-0.114899
-0.116882
-0.119324
-0.121155
-0.123138
-0.124512
-0.125732
-0.125122
-0.124207
-0.122986
-0.120239
-0.116882
-0.11322
-0.109558
-0.105438
-0.102234
-0.0987244
-0.096283
-0.093689
-0.0921631
-0.0912476
-0.090332
-0.0898743
-0.0892639
-0.0883484
-0.0872803
-0.0852966
-0.0828552
-0.0794983
-0.075531
-0.0697327
-0.0642395
-0.0582886
-0.0514221
-0.0448608
-0.038147
-0.0312805
-0.0247192
-0.0183105
-0.0126648
-0.00717163
-0.00274658
0.00183105
0.0062561
0.0105286
0.0152588
0.0201416
0.0248718
0.0302124
0.0358582
0.0418091
0.0480652
0.0546265
0.0605774
0.0668335
0.0726318
0.0773621
0.0817871
0.0856018
0.0880432
0.0901794
0.0917053
0.092926
0.0939941
0.0942993
0.0949097
0.0958252
0.0965881
0.0982666
0.100555
0.103302
0.106049
0.109406
0.112
0.115356
0.11795
0.121002
0.122528
0.124817
0.12558
0.125885
0.126038
0.125427
0.124817
0.124207
0.123291
0.122528
0.12207
0.122528
0.123291
0.124512
0.126038
0.127716
0.129547
0.130615
0.131531
0.132446
0.132904
0.132294
0.130615
0.128937
0.126495
0.123749
0.120697
0.117645
0.114899
0.111847
0.110016
0.10849
0.107574
0.107422
0.107422
0.107574
0.108185
0.10849
0.108948
0.108643
0.107727
0.106506
0.104675
0.102081
0.0991821
0.0959778
0.0933838
0.090332
0.087738
0.085907
0.0840759
0.0828552
0.0823975
0.0822449
0.0823975
0.0823975
0.08255
0.0819397
0.0810242
0.0793457
0.0770569
0.0741577
0.0698853
0.0646973
0.0593567
0.0534058
0.0471497
0.0410461
0.035553
0.0292969
0.0238037
0.0186157
0.0141907
0.0102234
0.00701904
0.0038147
0.00152588
-0.00137329
-0.00396729
-0.00671387
-0.0100708
-0.0137329
-0.0183105
-0.0230408
-0.0280762
-0.0337219
-0.0396729
-0.0456238
-0.0517273
-0.0572205
-0.0621033
-0.0665283
-0.0708008
-0.0740051
-0.0765991
-0.0788879
-0.0802612
-0.0810242
-0.0819397
-0.0827026
-0.0834656
-0.0848389
-0.0868225
-0.0895691
-0.0924683
-0.0956726
-0.0993347
-0.102386
-0.105743
-0.109253
-0.112152
-0.115051
-0.116425
-0.117798
-0.118256
-0.118866
-0.119019
-0.119019
-0.118866
-0.118713
-0.119476
-0.120087
-0.12146
-0.123444
-0.125275
-0.126801
-0.128632
-0.130005
-0.130768
-0.131073
-0.130463
-0.129242
-0.127258
-0.124054
-0.120697
-0.116882
-0.11322
-0.109863
-0.106049
-0.103149
-0.101013
-0.098877
-0.0985718
-0.0979614
-0.0984192
-0.0990295
-0.0993347
-0.0999451
-0.100708
-0.100555
-0.100555
-0.0994873
-0.098114
-0.096283
-0.0946045
-0.0923157
-0.0901794
-0.0880432
-0.0860596
-0.0848389
-0.0837708
-0.0834656
-0.0834656
-0.0842285
-0.085144
-0.0866699
-0.0875854
-0.0881958
-0.0889587
-0.0889587
-0.0881958
-0.0866699
-0.0846863
-0.0819397
-0.0788879
-0.075531
-0.0717163
-0.0680542
-0.0654602
-0.0624084
-0.0601196
-0.0587463
-0.0578308
-0.058136
-0.0588989
-0.0593567
-0.0601196
-0.0611877
-0.0619507
-0.0628662
-0.0630188
-0.0631714
-0.0624084
-0.0617981
-0.0613403
-0.0608826
-0.059967
-0.0593567
-0.0592041
-0.0593567
-0.0601196
-0.0619507
-0.0640869
-0.0669861
-0.0701904
-0.0737
-0.0770569
-0.0810242
-0.0842285
-0.0874329
-0.0900269
-0.0921631
-0.0927734
-0.0933838
-0.0933838
-0.0927734
-0.0921631
-0.0914001
-0.0909424
-0.0898743
-0.0897217
-0.0897217
-0.0901794
-0.0915527
-0.0932312
-0.0947571
-0.0967407
-0.0991821
-0.100861
-0.102539
-0.10376
-0.104218
-0.104523
-0.104218
-0.103607
-0.102386
-0.101776
-0.100403
-0.0996399
-0.098877
-0.098877
-0.0990295
-0.100098
-0.101318
-0.103149
-0.105591
-0.107574
-0.110168
-0.112457
-0.114136
-0.115814
-0.116577
-0.116577
-0.115967
-0.115509
-0.114136
-0.113068
-0.111694
-0.110779
-0.109711
-0.109711
-0.110321
-0.110779
-0.11261
-0.114288
-0.116425
-0.118561
-0.120392
-0.122681
-0.124512
-0.125732
-0.12558
-0.125122
-0.124054
-0.122375
-0.119934
-0.117645
-0.114136
-0.110931
-0.107422
-0.103912
-0.101318
-0.098877
-0.096283
-0.0941467
-0.0918579
-0.0894165
-0.0871277
-0.0846863
-0.0816345
-0.0779724
-0.0740051
-0.0694275
-0.0642395
-0.0590515
-0.0537109
-0.0483704
-0.043335
-0.0389099
-0.0344849
-0.0312805
-0.0286865
-0.0273132
-0.0267029
-0.0265503
-0.0262451
-0.0273132
-0.027771
-0.0286865
-0.0292969
-0.0296021
-0.0296021
-0.0286865
-0.0274658
-0.0253296
-0.0233459
-0.0210571
-0.0189209
-0.0169373
-0.0152588
-0.0144958
-0.0138855
-0.0144958
-0.0149536
-0.0164795
-0.0180054
-0.019989
-0.0219727
-0.0244141
-0.0267029
-0.0285339
-0.0296021
-0.0309753
-0.032196
-0.0331116
-0.0343323
-0.035553
-0.0375366
-0.039978
-0.0434875
-0.0480652
-0.052948
-0.0595093
-0.0671387
-0.0750732
-0.0840759
-0.0930786
-0.102386
-0.112
-0.121155
-0.130005
-0.137787
-0.144806
-0.150909
-0.156555
-0.161896
-0.165863
-0.169983
-0.173798
-0.176544
-0.180054
-0.183563
-0.186768
-0.189819
-0.193024
-0.195618
-0.198517
-0.200195
-0.201721
-0.202942
-0.2034
-0.203094
-0.201721
-0.200043
-0.197296
-0.194855
-0.191803
-0.189209
-0.18631
-0.184021
-0.181885
-0.180664
-0.180054
-0.180054
-0.180359
-0.181122
-0.181732
-0.18219
-0.183105
-0.183411
-0.183411
-0.182953
-0.181427
-0.179443
-0.177155
-0.17395
-0.170746
-0.168152
-0.165405
-0.162506
-0.160522
-0.158844
-0.157318
-0.157013
-0.157013
-0.157013
-0.157776
-0.157776
-0.158234
-0.158234
-0.157776
-0.15686
-0.155029
-0.153046
-0.150299
-0.147705
-0.144653
-0.141754
-0.139313
-0.137177
-0.135803
-0.135193
-0.135345
-0.136566
-0.138397
-0.141449
-0.144348
-0.148315
-0.15213
-0.155334
-0.158386
-0.16037
-0.161591
-0.161591
-0.16037
-0.157318
-0.153351
-0.147095
-0.138397
-0.127258
-0.113373
-0.09552
-0.0750732
-0.050354
-0.0218201
0.0102234
0.0462341
0.0868225
0.130463
0.178833
0.229797
0.285034
0.343018
0.402527
0.463104
0.522919
0.580292
0.633087
0.680542
0.721588
0.755005
0.779877
0.796051
0.802917
0.799561
0.786438
0.762177
0.726929
0.682068
0.627899
0.565338
0.496216
0.422516
0.345001
0.265198
0.184631
0.104218
0.0253296
-0.0512695
-0.125275
-0.193939
-0.257874
-0.315704
-0.365906
-0.408783
-0.443726
-0.470276
-0.488892
-0.499268
-0.501709
-0.497589
-0.486603
-0.470581
-0.450287
-0.426483
-0.400238
-0.372772
-0.344696
-0.317078
-0.291138
-0.266418
-0.244141
-0.223846
-0.207367
-0.193024
-0.180969
-0.171967
-0.164948
-0.15976
-0.156708
-0.155029
-0.154114
-0.153656
-0.153503
-0.154114
-0.154572
-0.15564
-0.15686
-0.157776
-0.159149
-0.160828
-0.162354
-0.164337
-0.166016
-0.167847
-0.16983
-0.171204
-0.172882
-0.173645
-0.173645
-0.17334
-0.172729
-0.170593
-0.168915
-0.165863
-0.162811
-0.160065
-0.15686
-0.154114
-0.151367
-0.149231
-0.147552
-0.146484
-0.146332
-0.146637
-0.146637
-0.14679
-0.147095
-0.147095
-0.146637
-0.146027
-0.144196
-0.141907
-0.139618
-0.137177
-0.133972
-0.130768
-0.128021
-0.12558
-0.122986
-0.12146
-0.120544
-0.119934
-0.120697
-0.12146
-0.122833
-0.124207
-0.125275
-0.12619
-0.126495
-0.126648
-0.125732
-0.124512
-0.12207
-0.119476
-0.11673
-0.11322
-0.110321
-0.106812
-0.103912
-0.101471
-0.0993347
-0.0979614
-0.0971985
-0.0965881
-0.0964355
-0.096283
-0.096283
-0.096283
-0.0961304
-0.0952148
-0.0944519
-0.0921631
-0.0901794
-0.0880432
-0.0852966
-0.0823975
-0.0796509
-0.0775146
-0.0749207
-0.0735474
-0.0726318
-0.0714111
-0.071106
-0.071106
-0.0709534
-0.0715637
-0.0717163
-0.0723267
-0.0718689
-0.0714111
-0.0701904
-0.068512
-0.0666809
-0.0639343
-0.0613403
-0.058136
-0.0553894
-0.0526428
-0.050354
-0.0486755
-0.0473022
-0.0466919
-0.0469971
-0.0473022
-0.0479126
-0.0485229
-0.0491333
-0.0497437
-0.0498962
-0.0494385
-0.0480652
-0.045929
-0.0428772
-0.0402832
-0.0370789
-0.0332642
-0.0299072
-0.0267029
-0.0234985
-0.0210571
-0.0192261
-0.0183105
-0.0175476
-0.017395
-0.0180054
-0.0189209
-0.0190735
-0.0196838
-0.0198364
-0.019989
-0.0192261
-0.0180054
-0.0163269
-0.0143433
-0.0119019
-0.00976562
-0.00717163
-0.00473022
-0.00259399
-0.000610352
0.000762939
0.00152588
0.00213623
0.00259399
0.00274658
0.00305176
0.00274658
0.00335693
0.00427246
0.00534058
0.00717163
0.00976562
0.0131226
0.0167847
0.0210571
0.0250244
0.0294495
0.0332642
0.0369263
0.0395203
0.0419617
0.0436401
0.0448608
0.0454712
0.0460815
0.0465393
0.0468445
0.0471497
0.0479126
0.0494385
0.0512695
0.0534058
0.0561523
0.0593567
0.0628662
0.0660706
0.0691223
0.0718689
0.0746155
0.0767517
0.0779724
0.0787354
0.0787354
0.0784302
0.0772095
0.0765991
0.0756836
0.0749207
0.0744629
0.0743103
0.0750732
0.0761414
0.0779724
0.0801086
0.08255
0.085144
0.0872803
0.0895691
0.0917053
0.093689
0.0944519
0.0950623
0.0946045
0.0944519
0.0935364
0.0927734
0.0914001
0.0906372
0.0892639
0.0889587
0.0889587
0.0892639
0.0897217
0.0909424
0.0917053
0.0926208
0.0932312
0.0939941
0.0938416
0.0933838
0.0923157
0.090332
0.087738
0.0846863
0.0816345
0.078125
0.0747681
0.0717163
0.0688171
0.0663757
0.0646973
0.0636292
0.0628662
0.062561
0.0621033
0.0621033
0.0616455
0.0610352
0.059967
0.0579834
0.055542
0.0520325
0.0482178
0.0442505
0.0395203
0.0346375
0.0297546
0.0248718
0.0202942
0.0154114
0.0115967
0.00839233
0.00579834
0.00305176
0.0012207
-0.000762939
-0.00259399
-0.00411987
-0.00656128
-0.00900269
-0.012207
-0.0163269
-0.0210571
-0.0257874
-0.0312805
-0.0369263
-0.042572
-0.0479126
-0.0531006
-0.058136
-0.0621033
-0.0656128
-0.0683594
-0.0708008
-0.0730896
-0.0750732
-0.0765991
-0.0782776
-0.0799561
-0.0820923
-0.0848389
-0.087738
-0.091095
-0.0944519
-0.0979614
-0.101166
-0.104065
-0.106659
-0.108948
-0.111084
-0.111847
-0.112305
-0.112
-0.111694
-0.110474
-0.110016
-0.108948
-0.108032
-0.107269
-0.106812
-0.106964
-0.10849
-0.109406
-0.111084
-0.113068
-0.115051
-0.117035
-0.118713
-0.120087
-0.120697
-0.120544
-0.119476
-0.118408
-0.116425
-0.114288
-0.111542
-0.108948
-0.106964
-0.104218
-0.102539
-0.101471
-0.100861
-0.100708
-0.101013
-0.101776
-0.103149
-0.10376
-0.104828
-0.105438
-0.105591
-0.105286
-0.104523
-0.102997
-0.101013
-0.098877
-0.0970459
-0.0944519
-0.0923157
-0.0904846
-0.0891113
-0.088501
-0.088501
-0.0888062
-0.0906372
-0.0918579
-0.0935364
-0.09552
-0.0970459
-0.0987244
-0.0996399
-0.10025
-0.100098
-0.0997925
-0.0993347
-0.098114
-0.0973511
-0.0964355
-0.09552
-0.0946045
-0.0946045
-0.0949097
-0.0958252
-0.0971985
-0.0990295
-0.101013
-0.102539
-0.104065
-0.105743
-0.107269
-0.107422
-0.107269
-0.106354
-0.104675
-0.102997
-0.10025
-0.0979614
-0.0956726
-0.0927734
-0.0906372
-0.0889587
-0.0878906
-0.0875854
-0.0881958
-0.0883484
-0.0897217
-0.0907898
-0.0926208
-0.0939941
-0.09552
-0.0961304
-0.096283
-0.0961304
-0.09552
-0.0944519
-0.092926
-0.0914001
-0.0898743
-0.088501
-0.0871277
-0.0865173
-0.0860596
-0.0868225
-0.0875854
-0.0888062
-0.0901794
-0.0921631
-0.0933838
-0.0953674
-0.0964355
-0.0973511
-0.0975037
-0.0971985
-0.0964355
-0.0956726
-0.0941467
-0.0926208
-0.0912476
-0.0898743
-0.0892639
-0.0889587
-0.0886536
-0.0897217
-0.0907898
-0.0927734
-0.0944519
-0.0965881
-0.098877
-0.100403
-0.102386
-0.103607
-0.104218
-0.10376
-0.103302
-0.102081
-0.100861
-0.0993347
-0.0976562
-0.0956726
-0.0949097
-0.0933838
-0.092926
-0.0924683
-0.0930786
-0.0932312
-0.0932312
-0.0935364
-0.0932312
-0.0927734
-0.0915527
-0.0901794
-0.0875854
-0.0842285
-0.0796509
-0.0746155
-0.0689697
-0.0631714
-0.0569153
-0.0508118
-0.0453186
-0.0405884
-0.0361633
-0.032959
-0.0292969
-0.0270081
-0.0248718
-0.0227356
-0.0209045
-0.0195312
-0.0178528
-0.0163269
-0.0141907
-0.0119019
-0.00976562
-0.00717163
-0.00427246
-0.00106812
0.00152588
0.00411987
0.00656128
0.00854492
0.00976562
0.0100708
0.0100708
0.00961304
0.00869751
0.00793457
0.00717163
0.00610352
0.00595093
0.00534058
0.00564575
0.00686646
0.00839233
0.010376
0.0125122
0.0151062
0.0172424
0.0187683
0.020752
0.0209045
0.0213623
0.0205994
0.0186157
0.0151062
0.0117493
0.00686646
0.00213623
-0.00350952
-0.00946045
-0.0157166
-0.0216675
-0.027771
-0.0338745
-0.0404358
-0.0471497
-0.0537109
-0.0605774
-0.0679016
-0.0753784
-0.0828552
-0.0907898
-0.0987244
-0.107117
-0.115662
-0.123749
-0.131073
-0.13855
-0.145111
-0.150909
-0.155792
-0.158844
-0.16098
-0.162048
-0.161591
-0.160522
-0.158386
-0.155792
-0.153046
-0.150146
-0.147858
-0.145721
-0.144196
-0.14328
-0.143127
-0.142975
-0.14389
-0.144653
-0.145569
-0.146484
-0.1474
-0.148163
-0.148468
-0.147552
-0.146942
-0.145569
-0.144043
-0.142059
-0.140076
-0.138245
-0.136719
-0.136108
-0.135345
-0.135193
-0.135498
-0.135803
-0.136261
-0.136566
-0.136566
-0.136566
-0.136261
-0.134888
-0.133209
-0.13092
-0.128174
-0.125427
-0.122375
-0.119781
-0.117035
-0.114746
-0.11261
-0.111237
-0.111084
-0.111237
-0.111847
-0.113373
-0.114746
-0.116272
-0.117645
-0.118713
-0.119629
-0.119934
-0.120239
-0.120087
-0.120392
-0.120544
-0.12085
-0.121155
-0.121918
-0.122986
-0.124664
-0.126038
-0.128174
-0.1297
-0.130615
-0.130615
-0.128784
-0.125122
-0.118713
-0.109253
-0.0958252
-0.0779724
-0.055542
-0.0286865
0.00244141
0.038147
0.0769043
0.119781
0.165405
0.214386
0.26535
0.318298
0.372314
0.427094
0.481567
0.534363
0.584564
0.630035
0.670776
0.705566
0.734863
0.757141
0.772705
0.781555
0.782013
0.773621
0.756378
0.729218
0.693054
0.647736
0.594482
0.534058
0.467072
0.395966
0.321503
0.245361
0.16983
0.0947571
0.0222778
-0.0473022
-0.112457
-0.172272
-0.22583
-0.273743
-0.314026
-0.347595
-0.374146
-0.393524
-0.407104
-0.413818
-0.415039
-0.411682
-0.4039
-0.393066
-0.379181
-0.362701
-0.345001
-0.325165
-0.304718
-0.283813
-0.262909
-0.241852
-0.220947
-0.200958
-0.181427
-0.162964
-0.146179
-0.130463
-0.116882
-0.105438
-0.0958252
-0.088501
-0.0834656
-0.0804138
-0.0791931
-0.0790405
-0.0801086
-0.0822449
-0.0848389
-0.0875854
-0.0900269
-0.0920105
-0.0933838
-0.0933838
-0.0933838
-0.0923157
-0.0906372
-0.0883484
-0.085907
-0.0834656
-0.0810242
-0.0782776
-0.0773621
-0.0756836
-0.0747681
-0.0740051
-0.0738525
-0.0727844
-0.0720215
-0.070343
-0.0689697
-0.0671387
-0.0640869
-0.0614929
-0.0578308
-0.0544739
-0.0506592
-0.0469971
-0.0437927
-0.0404358
-0.038147
-0.0358582
-0.0340271
-0.0332642
-0.0325012
-0.0320435
-0.0312805
-0.0309753
-0.0297546
-0.0289917
-0.0276184
-0.0257874
-0.0230408
-0.0195312
-0.0158691
-0.0126648
-0.00854492
-0.00534058
-0.00213623
0.000305176
0.00228882
0.0038147
0.00411987
0.00396729
0.00366211
0.00289917
0.00228882
0.00137329
0.000762939
0.000610352
0.000762939
0.00213623
0.00396729
0.00701904
0.0102234
0.0138855
0.018158
0.0219727
0.0257874
0.0294495
0.032196
0.0344849
0.0363159
0.0370789
0.037384
0.0369263
0.0370789
0.0366211
0.0361633
0.0360107
0.0360107
0.0367737
0.0382996
0.0398254
0.0419617
0.0442505
0.0466919
0.0488281
0.0508118
0.0524902
0.0535583
0.0540161
0.0540161
0.0532532
0.0520325
0.0505066
0.0489807
0.0474548
0.0462341
0.045166
0.0440979
0.0447083
0.045166
0.0462341
0.04776
0.0497437
0.0515747
0.052948
0.0547791
0.0563049
0.0569153
0.0570679
0.0567627
0.0553894
0.0543213
0.0524902
0.0511169
0.0488281
0.0476074
0.0460815
0.0448608
0.045166
0.0454712
0.0466919
0.0480652
0.050354
0.0523376
0.0547791
0.0572205
0.0592041
0.0610352
0.0619507
0.0624084
0.0627136
0.0622559
0.0614929
0.06073
0.0595093
0.0590515
0.058136
0.0584412
0.0587463
0.0596619
0.0608826
0.0627136
0.0642395
0.0665283
0.0675964
0.0694275
0.0700378
0.0706482
0.0706482
0.0695801
0.0679016
0.0665283
0.0645447
0.062561
0.0608826
0.0596619
0.058136
0.0579834
0.0582886
0.0592041
0.0605774
0.0630188
0.0656128
0.068512
0.071106
0.0735474
0.0759888
0.0779724
0.0788879
0.0793457
0.0791931
0.0779724
0.0772095
0.075531
0.0738525
0.0726318
0.0712585
0.071106
0.0714111
0.0724792
0.0743103
0.0765991
0.0787354
0.0814819
0.0842285
0.0868225
0.0888062
0.0906372
0.0914001
0.0915527
0.091095
0.090332
0.0886536
0.0868225
0.0852966
0.0837708
0.0822449
0.0813293
0.0811768
0.0811768
0.0820923
0.0834656
0.0848389
0.0863647
0.0881958
0.0892639
0.0898743
0.0901794
0.0894165
0.088501
0.0866699
0.0843811
0.0817871
0.0790405
0.0761414
0.0735474
0.0708008
0.0691223
0.0675964
0.0671387
0.0669861
0.0674438
0.0671387
0.0679016
0.0683594
0.0680542
0.0675964
0.0671387
0.0654602
0.0634766
0.0604248
0.0570679
0.0538635
0.0500488
0.0465393
0.0427246
0.0395203
0.0367737
0.0344849
0.0328064
0.0315857
0.0305176
0.0297546
0.0288391
0.0282288
0.0274658
0.0259399
0.0244141
0.0221252
0.0187683
0.0151062
0.0106812
0.00640869
0.0012207
-0.00366211
-0.00839233
-0.0128174
-0.0167847
-0.0202942
-0.0228882
-0.0253296
-0.0271606
-0.0289917
-0.0305176
-0.032196
-0.0338745
-0.0364685
-0.0386047
-0.0422668
-0.0457764
-0.0502014
-0.0553894
-0.059967
-0.0650024
-0.0697327
-0.0740051
-0.0779724
-0.0810242
-0.0837708
-0.0852966
-0.0865173
-0.0869751
-0.0872803
-0.0874329
-0.0872803
-0.087738
-0.088501
-0.0895691
-0.0915527
-0.0941467
-0.0970459
-0.100861
-0.104675
-0.108032
-0.111847
-0.115509
-0.118866
-0.121155
-0.122528
-0.123138
-0.122986
-0.122528
-0.12146
-0.119781
-0.118256
-0.116577
-0.114899
-0.113373
-0.11322
-0.11261
-0.112762
-0.11322
-0.113678
-0.114136
-0.114899
-0.115051
-0.114594
-0.113831
-0.112457
-0.110016
-0.106964
-0.103302
-0.0996399
-0.0958252
-0.0921631
-0.0886536
-0.0848389
-0.0820923
-0.0799561
-0.0788879
-0.0773621
-0.0772095
-0.0769043
-0.0770569
-0.0775146
-0.0776672
-0.0775146
-0.0773621
-0.0767517
-0.075531
-0.0738525
-0.0720215
-0.0701904
-0.0680542
-0.0669861
-0.0648499
-0.0636292
-0.0630188
-0.0628662
-0.0634766
-0.0650024
-0.065918
-0.0679016
-0.0691223
-0.0706482
-0.0720215
-0.0727844
-0.072937
-0.0721741
-0.0706482
-0.068512
-0.0668335
-0.0639343
-0.0614929
-0.0588989
-0.0561523
-0.0541687
-0.052948
-0.0524902
-0.0526428
-0.0531006
-0.0550842
-0.0569153
-0.0585938
-0.0611877
-0.063324
-0.0654602
-0.0669861
-0.0683594
-0.0688171
-0.0688171
-0.0683594
-0.0675964
-0.0665283
-0.065918
-0.0650024
-0.0645447
-0.0640869
-0.0642395
-0.0656128
-0.0668335
-0.0683594
-0.0706482
-0.0726318
-0.0744629
-0.0764465
-0.0778198
-0.0784302
-0.0787354
-0.078125
-0.0775146
-0.0756836
-0.0743103
-0.0726318
-0.0712585
-0.0700378
-0.0694275
-0.0691223
-0.0695801
-0.0704956
-0.0723267
-0.0743103
-0.0764465
-0.0779724
-0.0796509
-0.0805664
-0.0813293
-0.0805664
-0.0799561
-0.0778198
-0.0746155
-0.0704956
-0.0660706
-0.0614929
-0.0564575
-0.0509644
-0.0460815
-0.0411987
-0.037384
-0.0331116
-0.0299072
-0.0265503
-0.0241089
-0.0218201
-0.0193787
-0.0170898
-0.0144958
-0.0115967
-0.00839233
-0.00427246
-0.000762939
0.00320435
0.00732422
0.0112915
0.0143433
0.018158
0.0210571
0.0231934
0.0244141
0.0257874
0.0257874
0.0253296
0.0241089
0.0228882
0.0218201
0.0209045
0.0201416
0.0198364
0.0202942
0.0212097
0.0230408
0.0257874
0.0280762
0.0306702
0.0331116
0.0354004
0.037384
0.0384521
0.0386047
0.0379944
0.0361633
0.0337219
0.0306702
0.0273132
0.0233459
0.0192261
0.0151062
0.0106812
0.0062561
0.00228882
-0.00198364
-0.0062561
-0.0109863
-0.0161743
-0.0218201
-0.0282288
-0.0349426
-0.0424194
-0.0511169
-0.0601196
-0.0700378
-0.0798035
-0.0897217
-0.0997925
-0.108795
-0.117798
-0.125885
-0.132446
-0.138397
-0.142975
-0.146179
-0.148315
-0.149994
-0.150604
-0.150909
-0.150757
-0.150452
-0.150146
-0.150452
-0.150757
-0.151215
-0.151978
-0.15274
-0.154114
-0.154572
-0.154877
-0.154877
-0.154266
-0.152893
-0.151062
-0.148468
-0.145721
-0.142822
-0.139771
-0.137024
-0.134277
-0.131683
-0.130768
-0.129547
-0.129089
-0.1297
-0.130615
-0.131683
-0.132904
-0.134125
-0.134888
-0.135803
-0.136261
-0.135345
-0.134125
-0.132599
-0.130463
-0.128021
-0.125427
-0.122375
-0.119934
-0.117798
-0.116577
-0.115662
-0.114594
-0.115051
-0.115356
-0.116425
-0.117188
-0.118103
-0.118866
-0.119171
-0.119476
-0.119019
-0.117645
-0.115662
-0.113373
-0.111847
-0.109711
-0.108032
-0.106659
-0.105743
-0.106049
-0.106964
-0.10849
-0.110779
-0.113068
-0.115204
-0.11734
-0.118256
-0.118561
-0.117035
-0.113831
-0.10788
-0.0990295
-0.0872803
-0.0717163
-0.0526428
-0.0294495
-0.00305176
0.0276184
0.0614929
0.098877
0.139771
0.183258
0.229492
0.27832
0.329132
0.382538
0.437469
0.492706
0.547943
0.601349
0.651245
0.697021
0.736847
0.770264
0.796814
0.815125
0.82428
0.824585
0.814972
0.793915
0.762329
0.719147
0.666504
0.604706
0.535278
0.459442
0.379791
0.296631
0.212555
0.129395
0.0476074
-0.0306702
-0.104675
-0.174408
-0.23819
-0.295258
-0.345154
-0.387115
-0.421448
-0.44754
-0.466309
-0.477753
-0.48172
-0.480042
-0.472565
-0.4599
-0.44281
-0.422974
-0.400085
-0.375214
-0.349121
-0.32196
-0.295258
-0.268707
-0.24353
-0.220184
-0.198517
-0.179291
-0.162659
-0.148773
-0.137787
-0.129242
-0.123596
-0.120392
-0.118561
-0.118713
-0.120087
-0.12207
-0.125122
-0.128174
-0.130615
-0.132904
-0.134888
-0.135956
-0.136719
-0.137634
-0.137787
-0.137482
-0.137329
-0.137177
-0.137329
-0.137939
-0.13855
-0.138855
-0.139465
-0.139465
-0.139923
-0.139618
-0.138855
-0.137634
-0.135803
-0.132599
-0.1297
-0.12619
-0.122681
-0.119019
-0.115356
-0.112152
-0.109711
-0.107117
-0.105743
-0.104675
-0.105133
-0.105133
-0.105743
-0.106506
-0.107574
-0.10849
-0.108948
-0.108795
-0.108337
-0.106812
-0.104828
-0.102539
-0.0999451
-0.0971985
-0.0946045
-0.0923157
-0.0900269
-0.088501
-0.087738
-0.0871277
-0.0875854
-0.0883484
-0.0889587
-0.0895691
-0.0901794
-0.0904846
-0.090332
-0.0897217
-0.0881958
-0.0860596
-0.0831604
-0.0801086
-0.0765991
-0.0726318
-0.0694275
-0.0656128
-0.0627136
-0.0598145
-0.0579834
-0.0570679
-0.0563049
-0.0564575
-0.0567627
-0.057373
-0.0579834
-0.0590515
-0.0592041
-0.0593567
-0.0584412
-0.0572205
-0.0553894
-0.0534058
-0.0509644
-0.0486755
-0.045929
-0.0436401
-0.0411987
-0.0398254
-0.0386047
-0.0379944
-0.0379944
-0.0382996
-0.0389099
-0.0389099
-0.0395203
-0.0395203
-0.0396729
-0.0386047
-0.0372314
-0.0354004
-0.0323486
-0.0294495
-0.0263977
-0.0228882
-0.0195312
-0.0164795
-0.0135803
-0.0119019
-0.0100708
-0.00946045
-0.00930786
-0.00961304
-0.0100708
-0.0106812
-0.0109863
-0.0112915
-0.0114441
-0.0108337
-0.00976562
-0.00778198
-0.00534058
-0.00244141
0.000305176
0.00366211
0.00671387
0.00976562
0.0123596
0.0146484
0.0161743
0.0163269
0.0164795
0.0163269
0.0157166
0.014801
0.014801
0.0141907
0.0141907
0.0144958
0.0157166
0.0180054
0.0204468
0.0228882
0.0260925
0.0292969
0.032196
0.0352478
0.0375366
0.0390625
0.0401306
0.0405884
0.0405884
0.0401306
0.0395203
0.0390625
0.0379944
0.0376892
0.0375366
0.0376892
0.0390625
0.039978
0.0421143
0.0450134
0.0479126
0.0505066
0.0534058
0.0563049
0.0590515
0.0608826
0.0621033
0.0628662
0.0634766
0.0631714
0.0628662
0.0622559
0.0617981
0.0617981
0.0616455
0.0619507
0.0637817
0.065155
0.0675964
0.0697327
0.0727844
0.0758362
0.0779724
0.0804138
0.0828552
0.0839233
0.0846863
0.0842285
0.0834656
0.0823975
0.0805664
0.0788879
0.0770569
0.0752258
0.0740051
0.0732422
0.0727844
0.0733948
0.0741577
0.075531
0.0770569
0.0782776
0.0798035
0.0813293
0.0820923
0.08255
0.0820923
0.0808716
0.0796509
0.0773621
0.0750732
0.0726318
0.0701904
0.0682068
0.0660706
0.0648499
0.0642395
0.0639343
0.0643921
0.065155
0.065918
0.0666809
0.067749
0.068512
0.0688171
0.0689697
0.0679016
0.0662231
0.0643921
0.0616455
0.0585938
0.055542
0.0523376
0.0489807
0.0457764
0.0436401
0.0416565
0.039978
0.0392151
0.0378418
0.0370789
0.0363159
0.0354004
0.0341797
0.0326538
0.0305176
0.0270081
0.0233459
0.0190735
0.0141907
0.0088501
0.0038147
-0.0012207
-0.00656128
-0.0111389
-0.0151062
-0.0184631
-0.0215149
-0.0236511
-0.0256348
-0.0276184
-0.0291443
-0.0309753
-0.0325012
-0.0344849
-0.0372314
-0.0405884
-0.0440979
-0.0485229
-0.0531006
-0.0578308
-0.0630188
-0.0672913
-0.0721741
-0.0762939
-0.0796509
-0.0823975
-0.0845337
-0.085907
-0.0866699
-0.0872803
-0.0874329
-0.087738
-0.0881958
-0.088501
-0.0901794
-0.0917053
-0.0935364
-0.096283
-0.0996399
-0.102234
-0.105133
-0.108185
-0.110931
-0.112762
-0.114136
-0.115051
-0.114746
-0.113983
-0.112762
-0.111237
-0.1091
-0.107574
-0.105133
-0.103455
-0.102234
-0.101929
-0.101929
-0.102692
-0.103455
-0.104828
-0.106354
-0.10788
-0.109253
-0.110016
-0.110779
-0.110474
-0.109558
-0.108337
-0.106506
-0.104828
-0.102692
-0.100555
-0.098877
-0.0971985
-0.0959778
-0.0953674
-0.09552
-0.0961304
-0.0967407
-0.0979614
-0.098877
-0.0994873
-0.100098
-0.100403
-0.0996399
-0.0984192
-0.0964355
-0.0939941
-0.0906372
-0.0874329
-0.0845337
-0.0816345
-0.0784302
-0.0759888
-0.0740051
-0.0723267
-0.0724792
-0.0723267
-0.0730896
-0.0743103
-0.0758362
-0.0765991
-0.0778198
-0.0782776
-0.0787354
-0.0785828
-0.0773621
-0.0761414
-0.0743103
-0.0720215
-0.0704956
-0.0686646
-0.0666809
-0.0650024
-0.0645447
-0.0640869
-0.0643921
-0.0653076
-0.0660706
-0.0679016
-0.0691223
-0.0704956
-0.0715637
-0.0720215
-0.0726318
-0.0718689
-0.0712585
-0.0695801
-0.0671387
-0.0650024
-0.0628662
-0.0605774
-0.0579834
-0.0567627
-0.0556946
-0.0553894
-0.0558472
-0.0569153
-0.0587463
-0.0604248
-0.0622559
-0.0643921
-0.0668335
-0.0682068
-0.0691223
-0.0697327
-0.0694275
-0.0686646
-0.0672913
-0.0657654
-0.0646973
-0.0634766
-0.0624084
-0.0614929
-0.0613403
-0.0617981
-0.0624084
-0.0639343
-0.065918
-0.0679016
-0.0701904
-0.0721741
-0.0741577
-0.075531
-0.0770569
-0.0770569
-0.0769043
-0.0761414
-0.0744629
-0.0730896
-0.0714111
-0.0695801
-0.0680542
-0.0672913
-0.0665283
-0.0666809
-0.0669861
-0.0682068
-0.0697327
-0.0717163
-0.0732422
-0.0749207
-0.0765991
-0.0778198
-0.0785828
-0.0778198
-0.0773621
-0.0758362
-0.0741577
-0.0720215
-0.0697327
-0.067749
-0.0657654
-0.0645447
-0.063324
-0.0631714
-0.0631714
-0.0640869
-0.0654602
-0.0672913
-0.0688171
-0.0704956
-0.0718689
-0.0727844
-0.0733948
-0.0730896
-0.0721741
-0.0704956
-0.068512
-0.0660706
-0.0628662
-0.0598145
-0.0569153
-0.052948
-0.0502014
-0.0474548
-0.0450134
-0.0428772
-0.0405884
-0.0386047
-0.0358582
-0.0335693
-0.0302124
-0.0268555
-0.0224304
-0.0180054
-0.0123596
-0.00656128
-0.000457764
0.00549316
0.0114441
0.0172424
0.0224304
0.0274658
0.0314331
0.0340271
0.0358582
0.0366211
0.0367737
0.0364685
0.0360107
0.0358582
0.0349426
0.0346375
0.0354004
0.0361633
0.0375366
0.0395203
0.0408936
0.0436401
0.0463867
0.0489807
0.0514221
0.0535583
0.0549316
0.0556946
0.0556946
0.0556946
0.0549316
0.0543213
0.0526428
0.0515747
0.0502014
0.0488281
0.04776
0.0471497
0.0468445
0.0474548
0.0473022
0.0476074
0.0465393
0.0462341
0.0447083
0.0419617
0.0390625
0.0343323
0.0282288
0.0215149
0.0134277
0.00488281
-0.00396729
-0.0131226
-0.0228882
-0.032196
-0.0408936
-0.0486755
-0.0559998
-0.0627136
-0.0686646
-0.0741577
-0.0788879
-0.0831604
-0.0871277
-0.0912476
-0.09552
-0.0997925
-0.104065
-0.108185
-0.111694
-0.115509
-0.118408
-0.12146
-0.123596
-0.125427
-0.12619
-0.125732
-0.124817
-0.122681
-0.120239
-0.11795
-0.114899
-0.112152
-0.109558
-0.106964
-0.105438
-0.104523
-0.104218
-0.104675
-0.105743
-0.106812
-0.10788
-0.1091
-0.110474
-0.111084
-0.111389
-0.110931
-0.109558
-0.10849
-0.106049
-0.103302
-0.101013
-0.0984192
-0.0965881
-0.0949097
-0.0932312
-0.0927734
-0.0923157
-0.092926
-0.093689
-0.0947571
-0.0953674
-0.0964355
-0.0967407
-0.0975037
-0.0973511
-0.0968933
-0.0952148
-0.0933838
-0.0906372
-0.0883484
-0.0856018
-0.0828552
-0.0801086
-0.0784302
-0.0772095
-0.0764465
-0.0769043
-0.0779724
-0.0798035
-0.0819397
-0.0845337
-0.0874329
-0.090332
-0.0933838
-0.0958252
-0.0976562
-0.0984192
-0.098114
-0.0971985
-0.0956726
-0.0926208
-0.0891113
-0.0834656
-0.0765991
-0.0679016
-0.0572205
-0.0436401
-0.0268555
-0.00656128
0.0167847
0.0444031
0.0770569
0.113525
0.153809
0.198669
0.247345
0.299835
0.355988
0.413971
0.474396
0.535126
0.59433
0.650787
0.703278
0.749054
0.787964
0.819397
0.84259
0.856781
0.862122
0.858459
0.844116
0.819397
0.783997
0.738983
0.684967
0.622253
0.552673
0.478058
0.39917
0.317841
0.234833
0.152435
0.0709534
-0.00823975
-0.0842285
-0.155487
-0.2211
-0.279694
-0.330505
-0.372162
-0.405273
-0.42923
-0.443573
-0.449524
-0.44693
-0.436401
-0.419769
-0.397949
-0.372314
-0.34317
-0.312958
-0.28183
-0.250854
-0.221863
-0.194244
-0.170441
-0.148926
-0.130615
-0.115356
-0.102997
-0.0939941
-0.0875854
-0.0837708
-0.0813293
-0.0810242
-0.0817871
-0.083313
-0.0862122
-0.0889587
-0.0923157
-0.0961304
-0.100555
-0.104065
-0.108185
-0.112152
-0.116119
-0.119476
-0.122833
-0.125122
-0.127106
-0.128632
-0.129395
-0.129242
-0.128174
-0.126343
-0.123291
-0.120087
-0.116272
-0.111847
-0.107574
-0.103912
-0.100098
-0.0967407
-0.0941467
-0.0923157
-0.0915527
-0.0912476
-0.091095
-0.0915527
-0.0920105
-0.0926208
-0.0932312
-0.0933838
-0.0932312
-0.0918579
-0.0900269
-0.0875854
-0.0852966
-0.0819397
-0.0790405
-0.0759888
-0.072937
-0.0704956
-0.0689697
-0.0675964
-0.0672913
-0.0679016
-0.0680542
-0.0697327
-0.0706482
-0.0717163
-0.0721741
-0.0723267
-0.0720215
-0.0706482
-0.0694275
-0.0674438
-0.0650024
-0.0622559
-0.0592041
-0.0564575
-0.0543213
-0.0520325
-0.0498962
-0.0489807
-0.0483704
-0.0483704
-0.0488281
-0.0497437
-0.0502014
-0.0509644
-0.0517273
-0.0523376
-0.0512695
-0.0505066
-0.0492859
-0.0471497
-0.0445557
-0.0418091
-0.0390625
-0.0360107
-0.0332642
-0.0309753
-0.0289917
-0.0280762
-0.0273132
-0.0274658
-0.027771
-0.0286865
-0.0296021
-0.0300598
-0.0306702
-0.0306702
-0.0299072
-0.0286865
-0.0267029
-0.0242615
-0.0210571
-0.0175476
-0.0143433
-0.0111389
-0.00854492
-0.00518799
-0.00366211
-0.00198364
-0.00106812
-0.0012207
-0.00106812
-0.00198364
-0.00183105
-0.00228882
-0.00244141
-0.00213623
-0.00152588
0.000305176
0.00198364
0.00411987
0.00747681
0.0106812
0.0138855
0.0175476
0.0205994
0.0236511
0.0263977
0.0280762
0.0289917
0.0300598
0.0299072
0.0299072
0.0296021
0.0289917
0.0286865
0.0292969
0.030365
0.0318909
0.0335693
0.0363159
0.0392151
0.0419617
0.0450134
0.0479126
0.050354
0.052948
0.0546265
0.0561523
0.0564575
0.0569153
0.0569153
0.0564575
0.0563049
0.0559998
0.0564575
0.0563049
0.0575256
0.0590515
0.0614929
0.0646973
0.0682068
0.0721741
0.0753784
0.0791931
0.0827026
0.0862122
0.0889587
0.0907898
0.0921631
0.0930786
0.093689
0.0935364
0.0938416
0.0939941
0.0939941
0.0942993
0.0949097
0.0965881
0.0985718
0.101318
0.10437
0.107727
0.110931
0.113983
0.116882
0.119629
0.12207
0.123138
0.123749
0.123596
0.123138
0.122681
0.121307
0.120544
0.119781
0.119476
0.119324
0.120087
0.12085
0.122833
0.124817
0.127106
0.128784
0.131073
0.132904
0.134277
0.135193
0.135193
0.134888
0.133667
0.132141
0.130463
0.129089
0.126953
0.125427
0.124207
0.123444
0.123138
0.123444
0.124664
0.126038
0.127563
0.128784
0.1297
0.130615
0.131226
0.131073
0.13031
0.128174
0.126038
0.123444
0.120087
0.11734
0.114136
0.111542
0.108795
0.106812
0.10498
0.103912
0.103607
0.103149
0.103455
0.103607
0.103912
0.103912
0.103149
0.101776
0.0996399
0.0968933
0.0933838
0.0891113
0.0849915
0.0799561
0.0752258
0.0704956
0.0662231
0.0624084
0.0588989
0.0558472
0.0535583
0.0515747
0.0495911
0.0476074
0.0453186
0.0430298
0.0396729
0.0375366
0.0335693
0.0294495
0.0242615
0.0189209
0.0131226
0.00762939
0.00274658
-0.00228882
-0.00717163
-0.0115967
-0.0143433
-0.0170898
-0.0187683
-0.0202942
-0.0219727
-0.0230408
-0.0238037
-0.0254822
-0.0271606
-0.0297546
-0.0323486
-0.035553
-0.0392151
-0.0431824
-0.0476074
-0.0512695
-0.0553894
-0.0590515
-0.0628662
-0.0653076
-0.0666809
-0.0682068
-0.0682068
-0.0679016
-0.0674438
-0.0666809
-0.0656128
-0.0648499
-0.0640869
-0.0639343
-0.0642395
-0.0648499
-0.065918
-0.0675964
-0.0694275
-0.0712585
-0.072937
-0.0744629
-0.0759888
-0.0758362
-0.0758362
-0.0749207
-0.0738525
-0.0717163
-0.0697327
-0.0680542
-0.0662231
-0.0639343
-0.062561
-0.0617981
-0.0608826
-0.0614929
-0.0624084
-0.0636292
-0.0648499
-0.065918
-0.0672913
-0.0679016
-0.0688171
-0.0686646
-0.067749
-0.065918
-0.0640869
-0.0614929
-0.0585938
-0.055542
-0.052948
-0.0502014
-0.0479126
-0.0462341
-0.045166
-0.0450134
-0.045166
-0.0456238
-0.0465393
-0.0479126
-0.0489807
-0.0500488
-0.0505066
-0.0511169
-0.0500488
-0.0486755
-0.0469971
-0.0450134
-0.042572
-0.0404358
-0.0379944
-0.0357056
-0.0340271
-0.0325012
-0.0317383
-0.0317383
-0.0323486
-0.0331116
-0.0338745
-0.035553
-0.0369263
-0.0378418
-0.0387573
-0.0390625
-0.0389099
-0.0382996
-0.0369263
-0.0349426
-0.0328064
-0.0309753
-0.0288391
-0.0271606
-0.0256348
-0.0250244
-0.0250244
-0.0254822
-0.0265503
-0.0283813
-0.0296021
-0.0314331
-0.0331116
-0.0346375
-0.035553
-0.0360107
-0.0360107
-0.0352478
-0.0340271
-0.032196
-0.0306702
-0.0289917
-0.0270081
-0.0256348
-0.0239563
-0.0233459
-0.0233459
-0.0242615
-0.0253296
-0.0268555
-0.0285339
-0.030365
-0.032196
-0.0340271
-0.035553
-0.0366211
-0.0370789
-0.0367737
-0.035553
-0.03479
-0.0334167
-0.032196
-0.0308228
-0.0299072
-0.0286865
-0.0286865
-0.0291443
-0.030365
-0.0317383
-0.0343323
-0.0361633
-0.0382996
-0.0405884
-0.0424194
-0.0440979
-0.0453186
-0.0454712
-0.045166
-0.0434875
-0.0421143
-0.040741
-0.0389099
-0.0375366
-0.0360107
-0.0346375
-0.03479
-0.03479
-0.0363159
-0.0375366
-0.039978
-0.0419617
-0.0440979
-0.0465393
-0.0488281
-0.0508118
-0.0521851
-0.052948
-0.0523376
-0.0517273
-0.0506592
-0.0495911
-0.04776
-0.0463867
-0.0453186
-0.0445557
-0.043335
-0.0434875
-0.0439453
-0.0450134
-0.0462341
-0.0485229
-0.0494385
-0.0514221
-0.052948
-0.0537109
-0.0540161
-0.0537109
-0.0527954
-0.0515747
-0.0495911
-0.0473022
-0.0450134
-0.0431824
-0.0415039
-0.0401306
-0.0396729
-0.0392151
-0.0398254
-0.0411987
-0.0430298
-0.0447083
-0.0465393
-0.0483704
-0.0497437
-0.0508118
-0.0512695
-0.0514221
-0.0502014
-0.0488281
-0.0471497
-0.0454712
-0.0430298
-0.0413513
-0.0393677
-0.0379944
-0.0369263
-0.0366211
-0.0370789
-0.038147
-0.0395203
-0.0408936
-0.0427246
-0.0447083
-0.0460815
-0.0473022
-0.0479126
-0.0479126
-0.0476074
-0.045929
-0.0448608
-0.0431824
-0.0410461
-0.0389099
-0.037384
-0.0361633
-0.0352478
-0.0352478
-0.0354004
-0.0363159
-0.0375366
-0.0395203
-0.040741
-0.0419617
-0.0431824
-0.0440979
-0.0439453
-0.0431824
-0.0422668
-0.040741
-0.0386047
-0.0358582
-0.0334167
-0.0315857
-0.0292969
-0.0274658
-0.0263977
-0.0263977
-0.0263977
-0.0273132
-0.0285339
-0.0296021
-0.0311279
-0.0328064
-0.0341797
-0.0354004
-0.0354004
-0.0354004
-0.0346375
-0.0334167
-0.0317383
-0.030365
-0.0280762
-0.0263977
-0.025177
-0.0238037
-0.0230408
-0.0228882
-0.0236511
-0.0247192
-0.0260925
-0.0282288
-0.0296021
-0.0311279
-0.0328064
-0.0335693
-0.0340271
-0.0340271
-0.032959
-0.0314331
-0.0294495
-0.0271606
-0.0248718
-0.0228882
-0.0205994
-0.0192261
-0.0184631
-0.0180054
-0.0180054
-0.0190735
-0.0204468
-0.0216675
-0.0234985
-0.0244141
-0.0250244
-0.025177
-0.0247192
-0.0228882
-0.0204468
-0.0166321
-0.0123596
-0.00762939
-0.00213623
0.00305176
0.00854492
0.0140381
0.0192261
0.0241089
0.0283813
0.032196
0.0354004
0.0387573
0.0411987
0.0437927
0.0468445
0.0498962
0.0534058
0.0575256
0.0617981
0.0657654
0.070343
0.0744629
0.0782776
0.0823975
0.0862122
0.0886536
0.0909424
0.0923157
0.092926
0.0927734
0.0918579
0.0912476
0.0895691
0.0883484
0.0871277
0.0865173
0.0863647
0.0865173
0.0878906
0.0886536
0.0906372
0.0923157
0.0939941
0.0956726
0.0970459
0.098114
0.0987244
0.0982666
0.0973511
0.0950623
0.0924683
0.090332
0.0868225
0.0837708
0.0804138
0.0769043
0.0735474
0.071106
0.0683594
0.0660706
0.0631714
0.0602722
0.0569153
0.0526428
0.0483704
0.0428772
0.037384
0.030365
0.022583
0.0140381
0.00488281
-0.00411987
-0.0135803
-0.0219727
-0.0306702
-0.0389099
-0.0454712
-0.0511169
-0.0561523
-0.0601196
-0.0636292
-0.0657654
-0.0675964
-0.0694275
-0.0706482
-0.0720215
-0.0730896
-0.0747681
-0.0765991
-0.0787354
-0.080719
-0.0828552
-0.085144
-0.0865173
-0.087738
-0.0881958
-0.088501
-0.0875854
-0.085907
-0.083313
-0.0804138
-0.0782776
-0.0752258
-0.0724792
-0.0695801
-0.0669861
-0.0653076
-0.0640869
-0.0639343
-0.0639343
-0.0642395
-0.065155
-0.0657654
-0.0672913
-0.0675964
-0.0686646
-0.0682068
-0.067749
-0.0663757
-0.0645447
-0.0622559
-0.059967
-0.0570679
-0.0553894
-0.052948
-0.0511169
-0.0494385
-0.0485229
-0.0483704
-0.0486755
-0.0492859
-0.0500488
-0.0509644
-0.0518799
-0.0527954
-0.0532532
-0.0532532
-0.0524902
-0.0512695
-0.0498962
-0.0479126
-0.0463867
-0.0447083
-0.0444031
-0.0434875
-0.0437927
-0.0453186
-0.0468445
-0.0497437
-0.0531006
-0.0558472
-0.0593567
-0.0616455
-0.063324
-0.0639343
-0.062561
-0.0584412
-0.0523376
-0.042572
-0.0291443
-0.0119019
0.00915527
0.0341797
0.0630188
0.096283
0.133057
0.173035
0.215912
0.261993
0.310364
0.361938
0.415344
0.470734
0.527496
0.584869
0.640717
0.694427
0.744629
0.788727
0.827332
0.858917
0.882568
0.8992
0.905304
0.90271
0.888824
0.863647
0.827637
0.780182
0.723419
0.657501
0.584412
0.505829
0.423889
0.339203
0.253906
0.169373
0.0871277
0.0088501
-0.0654602
-0.133667
-0.195465
-0.249329
-0.29541
-0.332642
-0.361633
-0.381927
-0.394745
-0.400391
-0.39856
-0.390472
-0.37735
-0.35965
-0.33783
-0.312958
-0.286407
-0.259094
-0.230255
-0.201874
-0.174866
-0.148926
-0.124512
-0.103455
-0.0849915
-0.0701904
-0.058136
-0.0494385
-0.0440979
-0.0419617
-0.0421143
-0.0450134
-0.0498962
-0.0549316
-0.0616455
-0.0682068
-0.0746155
-0.0810242
-0.0857544
-0.0901794
-0.0930786
-0.0953674
-0.096283
-0.0964355
-0.0961304
-0.0953674
-0.093689
-0.0926208
-0.0909424
-0.0897217
-0.088501
-0.0871277
-0.0860596
-0.0846863
-0.0839233
-0.0820923
-0.0811768
-0.0790405
-0.0767517
-0.0737
-0.0701904
-0.0666809
-0.063324
-0.059967
-0.0569153
-0.0541687
-0.0520325
-0.0508118
-0.0502014
-0.050354
-0.0508118
-0.0520325
-0.0531006
-0.0543213
-0.0558472
-0.0564575
-0.0569153
-0.0569153
-0.0559998
-0.0544739
-0.0526428
-0.0497437
-0.0469971
-0.0444031
-0.0415039
-0.0392151
-0.0372314
-0.0354004
-0.0344849
-0.0340271
-0.0343323
-0.03479
-0.035553
-0.0363159
-0.0370789
-0.0376892
-0.0382996
-0.0378418
-0.0369263
-0.0354004
-0.032959
-0.0306702
-0.027771
-0.0250244
-0.022583
-0.019989
-0.0178528
-0.0161743
-0.015564
-0.0152588
-0.0152588
-0.0163269
-0.0169373
-0.0183105
-0.0189209
-0.0192261
-0.0201416
-0.0193787
-0.0183105
-0.0163269
-0.0140381
-0.0111389
-0.00762939
-0.00411987
-0.000915527
0.00213623
0.00473022
0.00686646
0.00839233
0.00946045
0.00900269
0.00900269
0.00869751
0.00808716
0.00717163
0.00671387
0.00686646
0.00732422
0.00854492
0.0105286
0.0128174
0.0151062
0.0178528
0.0205994
0.0233459
0.0257874
0.0279236
0.0291443
0.0302124
0.0305176
0.0306702
0.0302124
0.0292969
0.0285339
0.0279236
0.0273132
0.0271606
0.0279236
0.0292969
0.0311279
0.0334167
0.0364685
0.0395203
0.042572
0.0457764
0.0488281
0.0512695
0.0540161
0.0553894
0.0564575
0.057373
0.0570679
0.0575256
0.0576782
0.0576782
0.0578308
0.0582886
0.0592041
0.0614929
0.0636292
0.0668335
0.0698853
0.0727844
0.0765991
0.0799561
0.0823975
0.0849915
0.0868225
0.0875854
0.0880432
0.0881958
0.0871277
0.0863647
0.0857544
0.085144
0.085144
0.0846863
0.085907
0.0874329
0.0894165
0.0926208
0.0956726
0.0993347
0.103455
0.106659
0.110321
0.113525
0.116119
0.117798
0.119019
0.119781
0.120087
0.120392
0.120392
0.120392
0.12085
0.12146
0.12207
0.123901
0.125732
0.128479
0.131531
0.134583
0.137787
0.140686
0.143585
0.145721
0.147705
0.148621
0.148926
0.148773
0.148468
0.147858
0.147095
0.146484
0.145569
0.145416
0.145569
0.146027
0.147705
0.149384
0.15152
0.153656
0.155487
0.157471
0.159454
0.16037
0.161285
0.160675
0.160522
0.159302
0.157318
0.155334
0.153351
0.151215
0.148926
0.147247
0.146027
0.145416
0.145416
0.146179
0.147095
0.147858
0.149078
0.149994
0.150452
0.150299
0.149841
0.148926
0.146637
0.144348
0.140991
0.138092
0.135345
0.131683
0.128937
0.125885
0.123901
0.122681
0.12207
0.121155
0.120697
0.121002
0.12085
0.120697
0.120087
0.119171
0.117798
0.115814
0.112762
0.1091
0.105286
0.101013
0.0961304
0.0920105
0.0874329
0.0831604
0.0791931
0.0761414
0.0735474
0.0708008
0.0691223
0.0674438
0.0653076
0.0631714
0.0611877
0.0579834
0.0549316
0.0506592
0.0466919
0.0415039
0.0363159
0.0309753
0.0254822
0.019989
0.0149536
0.0105286
0.00656128
0.00335693
0.00137329
-0.000305176
-0.00183105
-0.00289917
-0.00366211
-0.00442505
-0.00595093
-0.00747681
-0.00961304
-0.012207
-0.0158691
-0.0196838
-0.0238037
-0.0285339
-0.0328064
-0.0370789
-0.0408936
-0.0447083
-0.0469971
-0.0488281
-0.0498962
-0.0497437
-0.0491333
-0.0486755
-0.0473022
-0.0462341
-0.0445557
-0.043335
-0.0431824
-0.0430298
-0.0436401
-0.0448608
-0.0462341
-0.0480652
-0.0497437
-0.0509644
-0.0523376
-0.0534058
-0.0540161
-0.0535583
-0.052948
-0.0518799
-0.0506592
-0.0498962
-0.0482178
-0.0471497
-0.0465393
-0.0454712
-0.0454712
-0.0460815
-0.0469971
-0.0482178
-0.0498962
-0.0517273
-0.0534058
-0.0549316
-0.0556946
-0.0567627
-0.0559998
-0.0550842
-0.0535583
-0.0509644
-0.0483704
-0.0453186
-0.0424194
-0.0395203
-0.0363159
-0.0341797
-0.0328064
-0.0314331
-0.0312805
-0.0320435
-0.0328064
-0.0341797
-0.035553
-0.0370789
-0.0382996
-0.0395203
-0.0396729
-0.0395203
-0.0390625
-0.0376892
-0.0360107
-0.0338745
-0.0317383
-0.0300598
-0.0282288
-0.0263977
-0.0253296
-0.0242615
-0.0242615
-0.0245667
-0.0253296
-0.0263977
-0.0268555
-0.0279236
-0.0286865
-0.0286865
-0.0285339
-0.0279236
-0.0262451
-0.0245667
-0.0221252
-0.0202942
-0.0183105
-0.0164795
-0.0149536
-0.0138855
-0.0135803
-0.0143433
-0.015564
-0.017395
-0.0195312
-0.0219727
-0.0247192
-0.0271606
-0.0288391
-0.0309753
-0.0315857
-0.0318909
-0.0318909
-0.0308228
-0.0292969
-0.0279236
-0.0262451
-0.0247192
-0.0231934
-0.0222778
-0.0215149
-0.0219727
-0.0222778
-0.0239563
-0.0254822
-0.0276184
-0.0289917
-0.0308228
-0.032959
-0.0341797
-0.0350952
-0.0354004
-0.0350952
-0.0344849
-0.0332642
-0.0317383
-0.0309753
-0.0292969
-0.0280762
-0.0270081
-0.0268555
-0.0274658
-0.0286865
-0.0300598
-0.0320435
-0.0338745
-0.0361633
-0.0384521
-0.0402832
-0.0421143
-0.0424194
-0.0424194
-0.0416565
-0.0404358
-0.0389099
-0.0375366
-0.0357056
-0.0340271
-0.0325012
-0.0312805
-0.0308228
-0.0311279
-0.0320435
-0.0338745
-0.035553
-0.0378418
-0.0396729
-0.0416565
-0.0434875
-0.045166
-0.0463867
-0.0463867
-0.045929
-0.045166
-0.0431824
-0.0416565
-0.0392151
-0.037384
-0.0350952
-0.032959
-0.0323486
-0.0318909
-0.0320435
-0.0325012
-0.0337219
-0.0350952
-0.0366211
-0.0375366
-0.0387573
-0.0396729
-0.0398254
-0.0395203
-0.0389099
-0.0378418
-0.0369263
-0.035553
-0.0340271
-0.032959
-0.0323486
-0.0315857
-0.0314331
-0.0326538
-0.0338745
-0.0360107
-0.0382996
-0.0405884
-0.0428772
-0.045166
-0.0471497
-0.0483704
-0.0488281
-0.0491333
-0.0482178
-0.0466919
-0.0448608
-0.0424194
-0.0398254
-0.0370789
-0.0343323
-0.0320435
-0.0302124
-0.0286865
-0.027771
-0.0273132
-0.0273132
-0.0276184
-0.0276184
-0.0279236
-0.0280762
-0.0279236
-0.0273132
-0.0263977
-0.0248718
-0.0234985
-0.0216675
-0.0201416
-0.0187683
-0.0170898
-0.0166321
-0.0163269
-0.0169373
-0.018158
-0.0202942
-0.0222778
-0.0248718
-0.0274658
-0.0302124
-0.032959
-0.0350952
-0.0372314
-0.0378418
-0.0378418
-0.037384
-0.0357056
-0.0331116
-0.0312805
-0.0286865
-0.0262451
-0.0242615
-0.0224304
-0.0210571
-0.0209045
-0.0212097
-0.0219727
-0.0236511
-0.025177
-0.0270081
-0.0286865
-0.0305176
-0.0311279
-0.0315857
-0.0312805
-0.0302124
-0.0286865
-0.0265503
-0.0244141
-0.0218201
-0.0204468
-0.0180054
-0.0161743
-0.0154114
-0.0151062
-0.0151062
-0.0157166
-0.0172424
-0.0187683
-0.0198364
-0.0212097
-0.0228882
-0.0239563
-0.0247192
-0.0244141
-0.0238037
-0.022583
-0.0210571
-0.0193787
-0.0178528
-0.0164795
-0.014801
-0.0137329
-0.0134277
-0.0134277
-0.0140381
-0.015564
-0.0172424
-0.0190735
-0.0209045
-0.0228882
-0.0239563
-0.025177
-0.0256348
-0.025177
-0.0244141
-0.0222778
-0.0202942
-0.0180054
-0.0154114
-0.0128174
-0.0106812
-0.00930786
-0.00823975
-0.00823975
-0.00854492
-0.00976562
-0.0115967
-0.0137329
-0.0157166
-0.0175476
-0.0192261
-0.0209045
-0.0215149
-0.0224304
-0.0221252
-0.0215149
-0.0205994
-0.0189209
-0.017395
-0.0161743
-0.0140381
-0.0126648
-0.0109863
-0.00961304
-0.00930786
-0.00854492
-0.00808716
-0.00762939
-0.00671387
-0.00579834
-0.00396729
-0.00167847
0.00106812
0.00488281
0.00915527
0.0144958
0.019989
0.0250244
0.0305176
0.035553
0.0401306
0.0445557
0.0486755
0.0514221
0.0535583
0.0549316
0.0561523
0.0564575
0.0570679
0.0579834
0.0579834
0.0590515
0.06073
0.0630188
0.0657654
0.0688171
0.0723267
0.0758362
0.0793457
0.08255
0.0857544
0.088501
0.0909424
0.0923157
0.0930786
0.0933838
0.0930786
0.0932312
0.0921631
0.0917053
0.0915527
0.0917053
0.0920105
0.0933838
0.0949097
0.0965881
0.0982666
0.0996399
0.100708
0.101776
0.101929
0.101776
0.0999451
0.0979614
0.0941467
0.0894165
0.0842285
0.0776672
0.0708008
0.0640869
0.0564575
0.0491333
0.0421143
0.0361633
0.0296021
0.0238037
0.0186157
0.0131226
0.00808716
0.00274658
-0.00274658
-0.00823975
-0.0146484
-0.0210571
-0.027771
-0.0349426
-0.0415039
-0.0485229
-0.0538635
-0.059967
-0.0643921
-0.068512
-0.0714111
-0.0727844
-0.072937
-0.072937
-0.0712585
-0.0697327
-0.0680542
-0.065918
-0.063324
-0.0614929
-0.059967
-0.0587463
-0.058136
-0.0579834
-0.0582886
-0.0585938
-0.0595093
-0.059967
-0.0601196
-0.0602722
-0.0596619
-0.0585938
-0.0566101
-0.0546265
-0.0526428
-0.0500488
-0.0476074
-0.0456238
-0.0434875
-0.0422668
-0.0411987
-0.0410461
-0.0410461
-0.0419617
-0.043335
-0.0442505
-0.045166
-0.0465393
-0.0474548
-0.0479126
-0.04776
-0.0468445
-0.0453186
-0.0434875
-0.0416565
-0.0390625
-0.0369263
-0.0349426
-0.0325012
-0.0314331
-0.0306702
-0.0305176
-0.0311279
-0.0328064
-0.0346375
-0.037384
-0.0401306
-0.0434875
-0.0468445
-0.0498962
-0.052948
-0.0547791
-0.0564575
-0.0575256
-0.0576782
-0.0576782
-0.0567627
-0.0552368
-0.0531006
-0.0497437
-0.045166
-0.0393677
-0.0317383
-0.0216675
-0.00839233
0.00747681
0.0280762
0.0518799
0.0798035
0.112457
0.149384
0.189819
0.234528
0.282745
0.335083
0.390015
0.44754
0.506592
0.565948
0.624084
0.678864
0.729065
0.773315
0.811157
0.842285
0.865631
0.881042
0.887756
0.88623
0.874786
0.853729
0.823517
0.784302
0.735779
0.679321
0.615997
0.547028
0.473328
0.396576
0.317535
0.237579
0.157928
0.0798035
0.00457764
-0.0666809
-0.133514
-0.194244
-0.24765
-0.293579
-0.331879
-0.361786
-0.383148
-0.396271
-0.401764
-0.400848
-0.393219
-0.381317
-0.365295
-0.346527
-0.325623
-0.30426
-0.282135
-0.260468
-0.238953
-0.218964
-0.199432
-0.180817
-0.164032
-0.148315
-0.133972
-0.12085
-0.108643
-0.0976562
-0.0875854
-0.0790405
-0.0721741
-0.0662231
-0.0619507
-0.0587463
-0.0570679
-0.0567627
-0.0579834
-0.059967
-0.0636292
-0.0672913
-0.0712585
-0.0750732
-0.0784302
-0.0813293
-0.0834656
-0.0846863
-0.0849915
-0.0840759
-0.0823975
-0.0799561
-0.0772095
-0.0743103
-0.0715637
-0.068512
-0.0663757
-0.0643921
-0.0627136
-0.0621033
-0.0617981
-0.0621033
-0.062561
-0.063324
-0.0639343
-0.0639343
-0.0637817
-0.0631714
-0.0616455
-0.0596619
-0.0575256
-0.0544739
-0.0509644
-0.0480652
-0.0450134
-0.0422668
-0.0398254
-0.038147
-0.0372314
-0.0363159
-0.0367737
-0.0370789
-0.0379944
-0.0389099
-0.0398254
-0.0405884
-0.0410461
-0.0408936
-0.0402832
-0.0387573
-0.037384
-0.035553
-0.0332642
-0.0314331
-0.0292969
-0.0274658
-0.0257874
-0.0244141
-0.0239563
-0.0238037
-0.0245667
-0.0248718
-0.0256348
-0.0265503
-0.0271606
-0.0273132
-0.0268555
-0.0259399
-0.0247192
-0.0222778
-0.019989
-0.0167847
-0.0134277
-0.0108337
-0.00762939
-0.0050354
-0.00305176
-0.00137329
-0.00106812
-0.000610352
-0.00152588
-0.00228882
-0.0038147
-0.00488281
-0.00610352
-0.00640869
-0.00701904
-0.00656128
-0.00564575
-0.0038147
-0.00152588
0.0012207
0.0038147
0.00701904
0.00900269
0.0117493
0.0141907
0.0161743
0.0170898
0.0180054
0.0180054
0.017395
0.0170898
0.0163269
0.0158691
0.0152588
0.0152588
0.0160217
0.017395
0.0192261
0.0222778
0.025177
0.0282288
0.0314331
0.0346375
0.037384
0.0393677
0.0415039
0.042572
0.0428772
0.0430298
0.0428772
0.042572
0.0421143
0.0421143
0.0415039
0.0419617
0.0424194
0.0436401
0.0456238
0.0476074
0.0498962
0.0523376
0.0550842
0.0569153
0.0593567
0.0611877
0.0621033
0.0622559
0.0621033
0.0614929
0.0604248
0.0592041
0.0576782
0.0569153
0.0559998
0.0556946
0.0559998
0.0569153
0.0587463
0.0611877
0.0636292
0.0669861
0.0700378
0.072937
0.0756836
0.0788879
0.0802612
0.0814819
0.0822449
0.0827026
0.0823975
0.0827026
0.0822449
0.0822449
0.08255
0.0827026
0.0839233
0.0857544
0.0878906
0.091095
0.0941467
0.0975037
0.100555
0.103455
0.106506
0.10849
0.110321
0.111084
0.111237
0.110779
0.109711
0.108185
0.106812
0.105591
0.104218
0.10376
0.103455
0.10376
0.104675
0.106354
0.107727
0.109711
0.112
0.113983
0.115967
0.117188
0.118103
0.118103
0.118256
0.11734
0.116272
0.115051
0.113831
0.11261
0.111389
0.110779
0.110474
0.110779
0.111237
0.112305
0.113831
0.115204
0.116577
0.11734
0.118256
0.118408
0.11795
0.116882
0.114899
0.112457
0.109558
0.106049
0.103149
0.100098
0.0971985
0.0953674
0.0938416
0.0930786
0.0932312
0.0939941
0.0950623
0.0967407
0.0982666
0.0994873
0.100861
0.101318
0.101318
0.100708
0.0987244
0.0965881
0.0935364
0.091095
0.0874329
0.0846863
0.0814819
0.0785828
0.0762939
0.0746155
0.0732422
0.0723267
0.0709534
0.0706482
0.0698853
0.0692749
0.0682068
0.0671387
0.0653076
0.0630188
0.0601196
0.0566101
0.0526428
0.0488281
0.0444031
0.0404358
0.0367737
0.0332642
0.030365
0.027771
0.0259399
0.0247192
0.0238037
0.0230408
0.0219727
0.0210571
0.019989
0.0186157
0.0161743
0.0132751
0.00976562
0.00549316
0.0012207
-0.00335693
-0.00747681
-0.0120544
-0.0158691
-0.0195312
-0.0224304
-0.0244141
-0.0257874
-0.0265503
-0.0271606
-0.0271606
-0.0268555
-0.0273132
-0.0276184
-0.0282288
-0.0289917
-0.0309753
-0.0326538
-0.0354004
-0.0378418
-0.0405884
-0.0434875
-0.0460815
-0.0476074
-0.0492859
-0.050354
-0.050354
-0.0502014
-0.0492859
-0.0483704
-0.0469971
-0.0457764
-0.0448608
-0.0437927
-0.0431824
-0.043335
-0.0444031
-0.0454712
-0.0471497
-0.0489807
-0.0514221
-0.0534058
-0.0556946
-0.0572205
-0.0587463
-0.0590515
-0.0593567
-0.058136
-0.0564575
-0.0547791
-0.0517273
-0.0495911
-0.0471497
-0.0445557
-0.0421143
-0.0408936
-0.0402832
-0.0404358
-0.0405884
-0.0411987
-0.0424194
-0.043335
-0.0447083
-0.0457764
-0.045929
-0.0457764
-0.0450134
-0.0434875
-0.0421143
-0.0396729
-0.0370789
-0.0350952
-0.0328064
-0.0309753
-0.0288391
-0.0283813
-0.0280762
-0.0283813
-0.0291443
-0.0305176
-0.0315857
-0.032959
-0.0341797
-0.03479
-0.035553
-0.0354004
-0.03479
-0.0337219
-0.0318909
-0.0300598
-0.0280762
-0.0260925
-0.0247192
-0.0236511
-0.022583
-0.022583
-0.0230408
-0.0242615
-0.0260925
-0.0286865
-0.0309753
-0.0337219
-0.0360107
-0.0382996
-0.039978
-0.0411987
-0.0416565
-0.0413513
-0.0405884
-0.0390625
-0.0375366
-0.0354004
-0.0338745
-0.032196
-0.0306702
-0.030365
-0.0297546
-0.030365
-0.0311279
-0.0320435
-0.0335693
-0.0341797
-0.0360107
-0.0369263
-0.0376892
-0.0378418
-0.0376892
-0.0369263
-0.035553
-0.0337219
-0.0323486
-0.0305176
-0.0291443
-0.0280762
-0.0273132
-0.0271606
-0.0276184
-0.0288391
-0.0306702
-0.0328064
-0.03479
-0.0370789
-0.0384521
-0.0401306
-0.0421143
-0.0419617
-0.0419617
-0.0413513
-0.0402832
-0.0390625
-0.0372314
-0.0354004
-0.0338745
-0.0325012
-0.0317383
-0.0317383
-0.0317383
-0.0332642
-0.0349426
-0.0369263
-0.0390625
-0.0415039
-0.0439453
-0.0457764
-0.0476074
-0.0479126
-0.0486755
-0.04776
-0.0466919
-0.045166
-0.0434875
-0.0418091
-0.039978
-0.0382996
-0.0372314
-0.0363159
-0.0366211
-0.0372314
-0.0386047
-0.039978
-0.0416565
-0.0428772
-0.0448608
-0.0460815
-0.0473022
-0.04776
-0.04776
-0.0466919
-0.0456238
-0.0439453
-0.0428772
-0.0410461
-0.0389099
-0.0378418
-0.0369263
-0.0358582
-0.0366211
-0.0370789
-0.0384521
-0.039978
-0.0415039
-0.0431824
-0.0444031
-0.0460815
-0.0466919
-0.0466919
-0.0462341
-0.0450134
-0.043335
-0.0411987
-0.0390625
-0.0372314
-0.0354004
-0.0334167
-0.0320435
-0.0315857
-0.0317383
-0.0326538
-0.0338745
-0.035553
-0.0375366
-0.0393677
-0.0408936
-0.0422668
-0.043335
-0.0437927
-0.0437927
-0.0428772
-0.0411987
-0.0395203
-0.037384
-0.035553
-0.0332642
-0.0315857
-0.0300598
-0.0292969
-0.0296021
-0.0297546
-0.0308228
-0.032196
-0.0340271
-0.0358582
-0.0375366
-0.0392151
-0.0402832
-0.040741
-0.0408936
-0.0402832
-0.0392151
-0.0378418
-0.0361633
-0.0343323
-0.032959
-0.0317383
-0.0308228
-0.0302124
-0.0306702
-0.0314331
-0.0328064
-0.0341797
-0.0361633
-0.0376892
-0.0389099
-0.0401306
-0.0404358
-0.0405884
-0.0402832
-0.0387573
-0.037384
-0.0357056
-0.0331116
-0.0314331
-0.0296021
-0.027771
-0.0265503
-0.0256348
-0.0257874
-0.0263977
-0.0276184
-0.0288391
-0.030365
-0.0320435
-0.0338745
-0.0352478
-0.0361633
-0.0366211
-0.0364685
-0.0350952
-0.0337219
-0.0320435
-0.0300598
-0.0280762
-0.0263977
-0.0250244
-0.0233459
-0.0227356
-0.0228882
-0.0234985
-0.0247192
-0.0263977
-0.0280762
-0.0299072
-0.0314331
-0.0323486
-0.032959
-0.0323486
-0.0306702
-0.0279236
-0.0245667
-0.0205994
-0.0163269
-0.0109863
-0.00640869
-0.00137329
0.00366211
0.00793457
0.012207
0.0158691
0.0195312
0.0224304
0.0254822
0.0289917
0.0312805
0.03479
0.0382996
0.0416565
0.0456238
0.0498962
0.0541687
0.0592041
0.0637817
0.068512
0.0724792
0.0765991
0.0791931
0.0814819
0.0831604
0.0837708
0.0842285
0.083313
0.0828552
0.0820923
0.0816345
0.0804138
0.0802612
0.080719
0.0817871
0.0834656
0.085144
0.0872803
0.0892639
0.0915527
0.0930786
0.0944519
0.0949097
0.0947571
0.0939941
0.0923157
0.0901794
0.0874329
0.0840759
0.0808716
0.0772095
0.0741577
0.0706482
0.067749
0.0650024
0.062561
0.0602722
0.058136
0.055542
0.052948
0.0489807
0.0453186
0.040741
0.0349426
0.0285339
0.0205994
0.0123596
0.00350952
-0.00595093
-0.0152588
-0.0242615
-0.0332642
-0.0413513
-0.0486755
-0.0550842
-0.06073
-0.0654602
-0.0695801
-0.0724792
-0.0752258
-0.0782776
-0.0801086
-0.0822449
-0.0842285
-0.0871277
-0.0894165
-0.0924683
-0.0947571
-0.0970459
-0.0993347
-0.101013
-0.101929
-0.102844
-0.102386
-0.101318
-0.0994873
-0.0970459
-0.0939941
-0.091095
-0.087738
-0.0852966
-0.0823975
-0.0801086
-0.0787354
-0.078125
-0.0775146
-0.0779724
-0.0784302
-0.0794983
-0.0804138
-0.0814819
-0.0817871
-0.0822449
-0.0820923
-0.0810242
-0.0794983
-0.0778198
-0.0756836
-0.0733948
-0.0706482
-0.068512
-0.0665283
-0.0650024
-0.0643921
-0.0639343
-0.0640869
-0.0646973
-0.065918
-0.0669861
-0.0680542
-0.0686646
-0.0697327
-0.0700378
-0.0697327
-0.0689697
-0.0675964
-0.065918
-0.0643921
-0.0624084
-0.0610352
-0.0598145
-0.0593567
-0.0598145
-0.06073
-0.0630188
-0.0657654
-0.0686646
-0.0721741
-0.075531
-0.078125
-0.0796509
-0.0805664
-0.0791931
-0.0753784
-0.0689697
-0.0593567
-0.0463867
-0.0294495
-0.00823975
0.0160217
0.0450134
0.0775146
0.113983
0.153046
0.195923
0.241699
0.290222
0.341644
0.395508
0.451813
0.509186
0.567017
0.624847
0.679932
0.731812
0.778809
0.819855
0.85434
0.88028
0.8992
0.907593
0.906219
0.894318
0.870056
0.834961
0.788116
0.731201
0.665283
0.591888
0.512848
0.429382
0.34317
0.25589
0.169678
0.0856018
0.00442505
-0.0726318
-0.144196
-0.209045
-0.266876
-0.316315
-0.357971
-0.391235
-0.415802
-0.432587
-0.440979
-0.44281
-0.437622
-0.426941
-0.411377
-0.391541
-0.3685
-0.343628
-0.31662
-0.288544
-0.260162
-0.233002
-0.206451
-0.182037
-0.15976
-0.139771
-0.122986
-0.108337
-0.0975037
-0.0894165
-0.0843811
-0.0819397
-0.0813293
-0.0827026
-0.0852966
-0.0892639
-0.093689
-0.0982666
-0.102539
-0.106049
-0.109253
-0.111694
-0.113373
-0.114746
-0.115051
-0.115509
-0.115356
-0.115356
-0.115204
-0.115356
-0.115662
-0.115814
-0.116577
-0.116577
-0.116882
-0.117035
-0.117035
-0.115967
-0.114746
-0.112915
-0.110321
-0.10788
-0.104675
-0.101471
-0.0984192
-0.09552
-0.0927734
-0.0906372
-0.0888062
-0.0880432
-0.0878906
-0.088501
-0.0894165
-0.0898743
-0.0906372
-0.0917053
-0.0924683
-0.0927734
-0.0924683
-0.0920105
-0.090332
-0.0886536
-0.0865173
-0.0842285
-0.0817871
-0.0796509
-0.0782776
-0.0772095
-0.0762939
-0.0762939
-0.0767517
-0.0775146
-0.0787354
-0.0799561
-0.0814819
-0.0823975
-0.0837708
-0.0842285
-0.0837708
-0.08255
-0.0804138
-0.0785828
-0.0759888
-0.072937
-0.0698853
-0.0675964
-0.0650024
-0.0630188
-0.0614929
-0.0604248
-0.0605774
-0.0605774
-0.0614929
-0.0624084
-0.0630188
-0.0642395
-0.065155
-0.0653076
-0.0650024
-0.0640869
-0.0627136
-0.0602722
-0.0578308
-0.0549316
-0.0521851
-0.0500488
-0.0474548
-0.0454712
-0.0442505
-0.0431824
-0.0427246
-0.042572
-0.0434875
-0.0439453
-0.0445557
-0.045166
-0.0453186
-0.0453186
-0.0448608
-0.0434875
-0.0415039
-0.0392151
-0.0366211
-0.0338745
-0.0312805
-0.0286865
-0.0267029
-0.0244141
-0.0234985
-0.0228882
-0.0228882
-0.0230408
-0.0236511
-0.0239563
-0.0250244
-0.0254822
-0.0253296
-0.0250244
-0.0241089
-0.022583
-0.019989
-0.0166321
-0.0131226
-0.0100708
-0.00656128
-0.00274658
0.000305176
0.00289917
0.0050354
0.00595093
0.00656128
0.00671387
0.00640869
0.00534058
0.00473022
0.00411987
0.00396729
0.00396729
0.00442505
0.00610352
0.00808716
0.0108337
0.0135803
0.0163269
0.0193787
0.022583
0.0253296
0.0276184
0.0296021
0.0309753
0.0318909
0.0320435
0.0318909
0.032196
0.0323486
0.0323486
0.0325012
0.0334167
0.0349426
0.0372314
0.0390625
0.0421143
0.0453186
0.0488281
0.0518799
0.055542
0.0584412
0.06073
0.0627136
0.0636292
0.0645447
0.0648499
0.0645447
0.0643921
0.0639343
0.0639343
0.0634766
0.0640869
0.0648499
0.0663757
0.0688171
0.0715637
0.0741577
0.0775146
0.080719
0.0837708
0.0863647
0.0888062
0.0900269
0.0901794
0.090332
0.0894165
0.0883484
0.0868225
0.0854492
0.0839233
0.08255
0.0816345
0.0813293
0.0820923
0.0830078
0.0842285
0.0862122
0.0878906
0.0895691
0.0912476
0.0926208
0.0938416
0.0939941
0.0933838
0.0927734
0.0914001
0.0900269
0.0881958
0.0860596
0.0836182
0.0819397
0.0798035
0.0785828
0.0779724
0.0778198
0.0779724
0.0784302
0.0790405
0.0788879
0.0788879
0.0788879
0.0778198
0.0765991
0.0741577
0.0712585
0.0680542
0.0640869
0.059967
0.0564575
0.0521851
0.0483704
0.0456238
0.0431824
0.0415039
0.0401306
0.0396729
0.0392151
0.0393677
0.0389099
0.0386047
0.0379944
0.0363159
0.0341797
0.0315857
0.0282288
0.0239563
0.0192261
0.0149536
0.010376
0.00488281
0.000305176
-0.0038147
-0.00793457
-0.0112915
-0.0135803
-0.0163269
-0.0184631
-0.0205994
-0.0228882
-0.025177
-0.0276184
-0.0302124
-0.0340271
-0.0379944
-0.0428772
-0.0483704
-0.0541687
-0.0596619
-0.065918
-0.0715637
-0.0770569
-0.0814819
-0.0857544
-0.0889587
-0.0918579
-0.0935364
-0.0953674
-0.0965881
-0.0985718
-0.0999451
-0.101471
-0.103302
-0.106201
-0.109253
-0.113068
-0.11673
-0.121307
-0.12558
-0.130157
-0.134277
-0.138092
-0.141754
-0.144501
-0.145874
-0.147095
-0.1474
-0.1474
-0.146942
-0.146179
-0.145416
-0.144806
-0.144806
-0.145111
-0.145569
-0.146484
-0.147858
-0.149536
-0.150757
-0.152283
-0.152893
-0.154114
-0.154419
-0.153656
-0.15274
-0.150757
-0.148773
-0.146484
-0.144043
-0.141602
-0.139771
-0.137939
-0.136871
-0.135803
-0.136108
-0.136566
-0.137939
-0.140076
-0.142059
-0.143738
-0.146179
-0.147552
-0.148621
-0.149231
-0.148621
-0.14801
-0.145721
-0.143585
-0.141296
-0.138397
-0.135651
-0.133057
-0.131073
-0.128937
-0.128021
-0.127563
-0.127411
-0.128021
-0.128326
-0.128784
-0.129089
-0.128937
-0.129089
-0.127869
-0.126343
-0.124054
-0.12146
-0.119019
-0.116577
-0.11322
-0.111237
-0.108948
-0.106964
-0.106049
-0.105896
-0.106201
-0.106659
-0.10788
-0.108643
-0.110016
-0.111237
-0.11261
-0.113068
-0.112915
-0.11261
-0.111694
-0.110321
-0.108337
-0.106354
-0.104675
-0.103302
-0.101929
-0.101013
-0.100861
-0.101471
-0.102692
-0.10437
-0.106201
-0.10849
-0.110321
-0.112152
-0.114136
-0.114746
-0.115814
-0.115967
-0.115662
-0.114746
-0.113525
-0.111542
-0.109558
-0.108185
-0.106659
-0.106201
-0.106201
-0.106964
-0.108337
-0.110168
-0.112457
-0.114746
-0.11673
-0.119019
-0.120697
-0.121918
-0.122375
-0.122223
-0.121307
-0.120239
-0.118408
-0.116882
-0.115051
-0.113525
-0.112152
-0.112
-0.111847
-0.113068
-0.114288
-0.116577
-0.118713
-0.121613
-0.124512
-0.127869
-0.130615
-0.132904
-0.134888
-0.135651
-0.136108
-0.135956
-0.135803
-0.134277
-0.133514
-0.132294
-0.131531
-0.13092
-0.131073
-0.132446
-0.133667
-0.135345
-0.137024
-0.13916
-0.141296
-0.143738
-0.145569
-0.146484
-0.147247
-0.1474
-0.14679
-0.146027
-0.144653
-0.14389
-0.143127
-0.141907
-0.140839
-0.140533
-0.140381
-0.140839
-0.141907
-0.142822
-0.144348
-0.145569
-0.146942
-0.148621
-0.149536
-0.150299
-0.150299
-0.149994
-0.148926
-0.147858
-0.146332
-0.144958
-0.143433
-0.142517
-0.141602
-0.141449
-0.142059
-0.143127
-0.144653
-0.146179
-0.147705
-0.149536
-0.150909
-0.153046
-0.153961
-0.155182
-0.154877
-0.154266
-0.15274
-0.151215
-0.149384
-0.147247
-0.145569
-0.143738
-0.142212
-0.140991
-0.140228
-0.140686
-0.141296
-0.142975
-0.145111
-0.147095
-0.149078
-0.151215
-0.15274
-0.154266
-0.154724
-0.154419
-0.153656
-0.152435
-0.150299
-0.148315
-0.145721
-0.143585
-0.141602
-0.139923
-0.138702
-0.138092
-0.138245
-0.138855
-0.140381
-0.14267
-0.144806
-0.1474
-0.149384
-0.150909
-0.151978
-0.151978
-0.15152
-0.150604
-0.149384
-0.147858
-0.146484
-0.146484
-0.145721
-0.145874
-0.146179
-0.147858
-0.149689
-0.151367
-0.153961
-0.155945
-0.158081
-0.16037
-0.161285
-0.162354
-0.162201
-0.161285
-0.159912
-0.157928
-0.155945
-0.153351
-0.151062
-0.148926
-0.1474
-0.146332
-0.145111
-0.145416
-0.146027
-0.14679
-0.147705
-0.149384
-0.150604
-0.151672
-0.15274
-0.153503
-0.153351
-0.152435
-0.151215
-0.149384
-0.146942
-0.144348
-0.142059
-0.139771
-0.137482
-0.135651
-0.134888
-0.134888
-0.135498
-0.136566
-0.138092
-0.139618
-0.140991
-0.142822
-0.143738
-0.144806
-0.145416
-0.145111
-0.144348
-0.142975
-0.141449
-0.139771
-0.138397
-0.136566
-0.135803
-0.135193
-0.135193
-0.135651
-0.136414
-0.137939
-0.139771
-0.141907
-0.143127
-0.145111
-0.146942
-0.148315
-0.148773
-0.149231
-0.148315
-0.147552
-0.145874
-0.144043
-0.142365
-0.140076
-0.138855
-0.137634
-0.136414
-0.136566
-0.137634
-0.138092
-0.13916
-0.140839
-0.142212
-0.143738
-0.144958
-0.146179
-0.146179
-0.145721
-0.145111
-0.143433
-0.141449
-0.139771
-0.137939
-0.135956
-0.134583
-0.133667
-0.133209
-0.133667
-0.134277
-0.136108
-0.137634
-0.139923
-0.141602
-0.14328
-0.144958
-0.145416
-0.145416
-0.145111
-0.14389
-0.142365
-0.140839
-0.13916
-0.138092
-0.135956
-0.13504
-0.13443
-0.13443
-0.134583
-0.136108
-0.137787
-0.140076
-0.142212
-0.143585
-0.144958
-0.146332
-0.146484
-0.146027
-0.145264
-0.143585
-0.141602
-0.139313
-0.136719
-0.13382
-0.131073
-0.127869
-0.125732
-0.123138
-0.12146
-0.120087
-0.119324
-0.119019
-0.118408
-0.117188
-0.116119
-0.114288
-0.111542
-0.10788
-0.10376
-0.098877
-0.0939941
-0.088501
-0.0823975
-0.0767517
-0.0706482
-0.0645447
-0.0590515
-0.0544739
-0.0505066
-0.0474548
-0.0453186
-0.0440979
-0.0430298
-0.0422668
-0.0421143
-0.0418091
-0.0413513
-0.0401306
-0.0382996
-0.0361633
-0.0340271
-0.0311279
-0.0285339
-0.0260925
-0.0242615
-0.0224304
-0.020752
-0.0205994
-0.020752
-0.0215149
-0.022583
-0.0242615
-0.0257874
-0.0279236
-0.0297546
-0.0314331
-0.0325012
-0.0331116
-0.0331116
-0.0325012
-0.032196
-0.0317383
-0.0308228
-0.0305176
-0.0305176
-0.0315857
-0.0326538
-0.0350952
-0.038147
-0.0424194
-0.0474548
-0.0527954
-0.0588989
-0.0654602
-0.0718689
-0.0784302
-0.0848389
-0.0907898
-0.0965881
-0.101929
-0.106812
-0.111084
-0.115204
-0.119781
-0.124207
-0.129089
-0.134125
-0.139923
-0.146179
-0.15213
-0.158539
-0.164948
-0.171051
-0.176849
-0.181427
-0.186005
-0.189514
-0.191803
-0.193024
-0.193176
-0.192719
-0.191193
-0.189514
-0.187378
-0.185852
-0.183563
-0.181732
-0.180664
-0.179901
-0.179901
-0.180054
-0.180969
-0.181885
-0.183258
-0.183868
-0.185089
-0.185547
-0.185242
-0.184631
-0.183716
-0.181885
-0.179596
-0.17807
-0.175323
-0.17334
-0.171509
-0.169983
-0.168915
-0.168915
-0.169373
-0.169678
-0.171509
-0.172424
-0.173645
-0.174561
-0.175323
-0.175629
-0.175171
-0.174255
-0.172424
-0.170441
-0.168152
-0.165863
-0.162964
-0.160675
-0.158234
-0.157013
-0.155487
-0.155487
-0.156555
-0.158386
-0.160675
-0.163574
-0.166931
-0.169983
-0.172729
-0.175171
-0.177002
-0.178375
-0.178223
-0.177612
-0.176239
-0.173798
-0.169373
-0.163879
-0.156555
-0.14679
-0.134583
-0.120087
-0.101776
-0.0799561
-0.0544739
-0.0247192
0.00930786
0.0471497
0.0894165
0.135803
0.186615
0.241241
0.299225
0.36087
0.424805
0.488892
0.552368
0.613251
0.66925
0.720215
0.763245
0.798798
0.825653
0.843658
0.852203
0.850372
0.838013
0.813904
0.778809
0.73288
0.677032
0.613098
0.541687
0.464783
0.383148
0.298309
0.211029
0.123901
0.0379944
-0.0469971
-0.127716
-0.203857
-0.274506
-0.337677
-0.392914
-0.438995
-0.475159
-0.502777
-0.520172
-0.528564
-0.528412
-0.519867
-0.505219
-0.484467
-0.458984
-0.430908
-0.400696
-0.369568
-0.339508
-0.310059
-0.283203
-0.259247
-0.23819
-0.22049
-0.205688
-0.194855
-0.186462
-0.181122
-0.17807
-0.176697
-0.177155
-0.178528
-0.180664
-0.184021
-0.187225
-0.190582
-0.195007
-0.198669
-0.202637
-0.206604
-0.210571
-0.213928
-0.217743
-0.220795
-0.222778
-0.22522
-0.225677
-0.225983
-0.225525
-0.224609
-0.222473
-0.219269
-0.215759
-0.211487
-0.206757
-0.202179
-0.197601
-0.193481
-0.190277
-0.187683
-0.185699
-0.184479
-0.184326
-0.184479
-0.185852
-0.186462
-0.187988
-0.189056
-0.189972
-0.19043
-0.19043
-0.189667
-0.188293
-0.186005
-0.183868
-0.181122
-0.177917
-0.175018
-0.172272
-0.16983
-0.168304
-0.167236
-0.167084
-0.167084
-0.167847
-0.16861
-0.169525
-0.169678
-0.16922
-0.168915
-0.167847
-0.166016
-0.164185
-0.161896
-0.159302
-0.157318
-0.155334
-0.153656
-0.15213
-0.150604
-0.149994
-0.150299
-0.150452
-0.151215
-0.15213
-0.153046
-0.153961
-0.154572
-0.154877
-0.154266
-0.153503
-0.151367
-0.148926
-0.145264
-0.141602
-0.137939
-0.134125
-0.1297
-0.126495
-0.123291
-0.121307
-0.120087
-0.119171
-0.118866
-0.118866
-0.119476
-0.119476
-0.119629
-0.119934
-0.119781
-0.118103
-0.117188
-0.114899
-0.112762
-0.110321
-0.107727
-0.105438
-0.102844
-0.100861
-0.0993347
-0.098114
-0.0976562
-0.0978088
-0.0984192
-0.0991821
-0.0993347
-0.0999451
-0.0999451
-0.0993347
-0.0984192
-0.0967407
-0.0935364
-0.0904846
-0.0872803
-0.083313
-0.0791931
-0.0756836
-0.0717163
-0.0683594
-0.0653076
-0.0627136
-0.0608826
-0.0592041
-0.0587463
-0.0582886
-0.0576782
-0.0576782
-0.0578308
-0.0572205
-0.0569153
-0.0558472
-0.0543213
-0.0521851
-0.0495911
-0.0468445
-0.0444031
-0.0421143
-0.0398254
-0.038147
-0.0363159
-0.035553
-0.0349426
-0.0350952
-0.0354004
-0.0361633
-0.0366211
-0.0372314
-0.0372314
-0.0369263
-0.0361633
-0.0341797
-0.0311279
-0.0271606
-0.0228882
-0.0180054
-0.01297
-0.00808716
-0.00366211
0.000610352
0.00427246
0.00732422
0.00915527
0.0111389
0.0112915
0.0115967
0.0114441
0.0115967
0.0112915
0.0112915
0.0115967
0.0126648
0.0137329
0.0160217
0.0193787
0.0221252
0.025177
0.0286865
0.0312805
0.0346375
0.0372314
0.0395203
0.0408936
0.0416565
0.0427246
0.0427246
0.0430298
0.0428772
0.042572
0.0428772
0.0430298
0.0444031
0.0457764
0.0482178
0.0505066
0.0537109
0.0567627
0.0593567
0.0621033
0.0648499
0.0666809
0.0682068
0.0691223
0.0688171
0.0682068
0.0679016
0.0668335
0.0656128
0.0645447
0.0634766
0.0634766
0.0642395
0.065155
0.0671387
0.0698853
0.0727844
0.0753784
0.078125
0.080719
0.0823975
0.0837708
0.0842285
0.0837708
0.0827026
0.0808716
0.0790405
0.0761414
0.0740051
0.0715637
0.0691223
0.0668335
0.0645447
0.0627136
0.0616455
0.0604248
0.0598145
0.0595093
0.0595093
0.0588989
0.0587463
0.0578308
0.0564575
0.0543213
0.0514221
0.0474548
0.0439453
0.0398254
0.0358582
0.0318909
0.0282288
0.0245667
0.0215149
0.0187683
0.0166321
0.0149536
0.0132751
0.0117493
0.0102234
0.00808716
0.00610352
0.00350952
-0.000152588
-0.0038147
-0.00900269
-0.0140381
-0.0193787
-0.025177
-0.0306702
-0.0360107
-0.0411987
-0.0457764
-0.0497437
-0.0526428
-0.0559998
-0.0587463
-0.0610352
-0.0631714
-0.0654602
-0.0674438
-0.070343
-0.072937
-0.0764465
-0.0804138
-0.0848389
-0.0898743
-0.0952148
-0.100098
-0.105591
-0.110168
-0.114746
-0.118713
-0.12207
-0.123901
-0.125275
-0.125885
-0.12619
-0.126495
-0.126495
-0.126343
-0.126801
-0.127411
-0.128326
-0.130157
-0.132446
-0.134583
-0.136566
-0.138855
-0.140839
-0.142822
-0.144501
-0.145416
-0.145264
-0.144653
-0.14328
-0.141449
-0.13916
-0.137482
-0.134888
-0.133209
-0.131226
-0.13031
-0.129852
-0.130005
-0.131073
-0.132294
-0.134125
-0.136719
-0.13855
-0.140533
-0.142212
-0.14328
-0.143585
-0.143127
-0.142365
-0.140686
-0.139313
-0.137177
-0.13504
-0.133209
-0.131226
-0.129852
-0.128479
-0.128021
-0.127869
-0.128326
-0.128479
-0.129395
-0.130005
-0.130463
-0.130463
-0.13031
-0.129242
-0.127563
-0.125122
-0.122681
-0.119781
-0.116425
-0.112915
-0.109711
-0.106812
-0.10437
-0.102386
-0.101166
-0.101013
-0.100861
-0.101471
-0.102234
-0.102539
-0.103302
-0.103455
-0.103455
-0.102539
-0.101318
-0.0999451
-0.0982666
-0.0958252
-0.0938416
-0.0917053
-0.0900269
-0.0881958
-0.0869751
-0.0862122
-0.0865173
-0.0869751
-0.0881958
-0.0895691
-0.0915527
-0.0924683
-0.0942993
-0.0958252
-0.0959778
-0.0959778
-0.0950623
-0.0935364
-0.0917053
-0.0901794
-0.0878906
-0.0862122
-0.0845337
-0.0828552
-0.0823975
-0.0823975
-0.0828552
-0.0843811
-0.0862122
-0.0883484
-0.090332
-0.092926
-0.0947571
-0.0968933
-0.0985718
-0.0991821
-0.0993347
-0.0990295
-0.0984192
-0.0970459
-0.0959778
-0.0949097
-0.0938416
-0.0933838
-0.0926208
-0.0932312
-0.0942993
-0.0959778
-0.0979614
-0.0999451
-0.102081
-0.103607
-0.104828
-0.105438
-0.105743
-0.105286
-0.104065
-0.102081
-0.10025
-0.098114
-0.0958252
-0.0932312
-0.0917053
-0.0898743
-0.0894165
-0.088501
-0.0892639
-0.0901794
-0.0918579
-0.0938416
-0.096283
-0.0987244
-0.101929
-0.10437
-0.106506
-0.108032
-0.108795
-0.108948
-0.108643
-0.107422
-0.106354
-0.10498
-0.103302
-0.101776
-0.100861
-0.100403
-0.10025
-0.101013
-0.102234
-0.103455
-0.104828
-0.106049
-0.107422
-0.10849
-0.108643
-0.108948
-0.108337
-0.106201
-0.10437
-0.102539
-0.100098
-0.0976562
-0.0953674
-0.0933838
-0.0920105
-0.0914001
-0.0914001
-0.0920105
-0.092926
-0.0941467
-0.0959778
-0.0978088
-0.0990295
-0.100098
-0.100861
-0.101013
-0.100098
-0.0987244
-0.0968933
-0.0950623
-0.0932312
-0.0915527
-0.0898743
-0.088501
-0.0875854
-0.0872803
-0.0875854
-0.0886536
-0.0895691
-0.0906372
-0.0923157
-0.0932312
-0.0941467
-0.0949097
-0.0947571
-0.0947571
-0.0930786
-0.0914001
-0.0889587
-0.0863647
-0.0837708
-0.0810242
-0.0785828
-0.0765991
-0.0749207
-0.0744629
-0.0746155
-0.0753784
-0.0769043
-0.0787354
-0.0808716
-0.0830078
-0.0848389
-0.0863647
-0.0869751
-0.087738
-0.0871277
-0.0865173
-0.0848389
-0.0834656
-0.0816345
-0.0796509
-0.0778198
-0.0756836
-0.0741577
-0.0730896
-0.0724792
-0.0723267
-0.0726318
-0.0735474
-0.0746155
-0.0756836
-0.0767517
-0.0775146
-0.0775146
-0.0769043
-0.0756836
-0.0743103
-0.0720215
-0.0701904
-0.0674438
-0.0654602
-0.0631714
-0.0614929
-0.0602722
-0.0601196
-0.059967
-0.06073
-0.0614929
-0.0628662
-0.0640869
-0.0656128
-0.0668335
-0.067749
-0.0680542
-0.067749
-0.0668335
-0.0653076
-0.0636292
-0.0616455
-0.0596619
-0.057373
-0.0552368
-0.0538635
-0.0524902
-0.0515747
-0.0511169
-0.0511169
-0.0520325
-0.0531006
-0.0541687
-0.0552368
-0.0564575
-0.0570679
-0.0570679
-0.0569153
-0.055542
-0.0535583
-0.0511169
-0.0485229
-0.0463867
-0.0442505
-0.0419617
-0.039978
-0.0387573
-0.0378418
-0.0375366
-0.0378418
-0.0384521
-0.0396729
-0.0408936
-0.0422668
-0.043335
-0.0439453
-0.0436401
-0.0422668
-0.0404358
-0.0370789
-0.0332642
-0.0282288
-0.0233459
-0.0180054
-0.0120544
-0.00656128
-0.000610352
0.00427246
0.00900269
0.0131226
0.0170898
0.0201416
0.0233459
0.0267029
0.0299072
0.0331116
0.0366211
0.0401306
0.0445557
0.0491333
0.0538635
0.0585938
0.0630188
0.0674438
0.071106
0.0750732
0.0776672
0.0798035
0.0813293
0.0811768
0.0813293
0.0799561
0.0787354
0.0775146
0.0769043
0.0759888
0.0758362
0.0759888
0.0772095
0.0785828
0.0805664
0.08255
0.0849915
0.0871277
0.0892639
0.0906372
0.0912476
0.0918579
0.0912476
0.0895691
0.0874329
0.0848389
0.0820923
0.0788879
0.0750732
0.0717163
0.068512
0.0650024
0.0621033
0.0593567
0.0559998
0.0524902
0.0486755
0.0444031
0.0395203
0.0332642
0.0267029
0.0187683
0.0105286
0.00106812
-0.00823975
-0.0178528
-0.0276184
-0.0370789
-0.0456238
-0.0537109
-0.0610352
-0.0671387
-0.0721741
-0.0758362
-0.0785828
-0.0804138
-0.0817871
-0.0823975
-0.0823975
-0.0820923
-0.0820923
-0.0820923
-0.0828552
-0.083313
-0.0845337
-0.0860596
-0.0869751
-0.0878906
-0.0889587
-0.0892639
-0.0894165
-0.0889587
-0.0880432
-0.0862122
-0.0843811
-0.0822449
-0.0799561
-0.078125
-0.0764465
-0.0746155
-0.0733948
-0.072937
-0.072937
-0.0735474
-0.0749207
-0.0761414
-0.0776672
-0.0796509
-0.0808716
-0.0817871
-0.0823975
-0.0822449
-0.0810242
-0.0793457
-0.0770569
-0.0746155
-0.0717163
-0.0689697
-0.0662231
-0.0636292
-0.0617981
-0.0604248
-0.0598145
-0.0602722
-0.06073
-0.0614929
-0.062561
-0.0640869
-0.0653076
-0.0663757
-0.0671387
-0.0679016
-0.067749
-0.0675964
-0.0669861
-0.0665283
-0.065918
-0.0657654
-0.0663757
-0.0671387
-0.0683594
-0.0701904
-0.0724792
-0.0747681
-0.0767517
-0.0782776
-0.0788879
-0.0776672
-0.0743103
-0.0675964
-0.0584412
-0.0444031
-0.0267029
-0.00427246
0.022583
0.0531006
0.088501
0.127716
0.170441
0.21698
0.266266
0.317993
0.371704
0.428009
0.485229
0.542297
0.59906
0.653076
0.70343
0.748596
0.788727
0.822296
0.849304
0.868378
0.879669
0.8815
0.874023
0.855408
0.826263
0.786285
0.736084
0.67627
0.608215
0.533142
0.453491
0.370331
0.285645
0.200043
0.115814
0.0343323
-0.0440979
-0.117188
-0.183105
-0.242157
-0.293274
-0.335083
-0.3685
-0.393524
-0.409698
-0.418396
-0.420227
-0.415649
-0.405273
-0.390778
-0.372925
-0.35202
-0.328827
-0.304413
-0.279541
-0.254669
-0.23056
-0.206146
-0.183868
-0.162964
-0.143585
-0.127258
-0.11322
-0.101776
-0.0932312
-0.0865173
-0.0831604
-0.0816345
-0.0822449
-0.085144
-0.0892639
-0.0942993
-0.0997925
-0.105591
-0.111389
-0.11673
-0.12146
-0.124359
-0.126343
-0.127563
-0.127411
-0.126038
-0.124054
-0.12207
-0.119781
-0.116882
-0.114594
-0.113068
-0.111542
-0.110931
-0.110474
-0.110779
-0.111084
-0.111542
-0.112762
-0.11322
-0.113068
-0.112305
-0.111694
-0.110321
-0.108032
-0.106049
-0.103607
-0.101929
-0.0996399
-0.098114
-0.0970459
-0.0964355
-0.0968933
-0.0965881
-0.0975037
-0.0982666
-0.0985718
-0.0990295
-0.0996399
-0.0996399
-0.0990295
-0.0975037
-0.09552
-0.0927734
-0.0897217
-0.0868225
-0.0831604
-0.0798035
-0.0767517
-0.0738525
-0.0714111
-0.0695801
-0.0688171
-0.0682068
-0.0686646
-0.0688171
-0.0697327
-0.0698853
-0.0700378
-0.0706482
-0.0701904
-0.0691223
-0.0674438
-0.0648499
-0.0616455
-0.0587463
-0.0553894
-0.0518799
-0.0486755
-0.0457764
-0.0437927
-0.0421143
-0.0411987
-0.0408936
-0.0411987
-0.0416565
-0.0424194
-0.0428772
-0.0434875
-0.0434875
-0.043335
-0.0427246
-0.0408936
-0.0390625
-0.0369263
-0.0346375
-0.0317383
-0.0292969
-0.0267029
-0.0244141
-0.0233459
-0.0218201
-0.0215149
-0.0216675
-0.0227356
-0.0236511
-0.0241089
-0.0250244
-0.0254822
-0.0253296
-0.025177
-0.0238037
-0.0213623
-0.0190735
-0.0161743
-0.0131226
-0.00976562
-0.00656128
-0.00366211
-0.00137329
0.0012207
0.00198364
0.00274658
0.00274658
0.00213623
0.00152588
0.000305176
-0.000762939
-0.0012207
-0.00183105
-0.00198364
-0.0012207
-0.000152588
0.00198364
0.00457764
0.00762939
0.0109863
0.0143433
0.0178528
0.0213623
0.0244141
0.0260925
0.0280762
0.0291443
0.0296021
0.0302124
0.0306702
0.0312805
0.0314331
0.032196
0.0331116
0.0346375
0.0369263
0.0396729
0.0424194
0.0456238
0.0485229
0.0517273
0.0544739
0.0569153
0.058136
0.0593567
0.0596619
0.0592041
0.0587463
0.0578308
0.0569153
0.0561523
0.0556946
0.055542
0.0559998
0.057373
0.0595093
0.0617981
0.0654602
0.0689697
0.072937
0.0764465
0.0802612
0.0837708
0.0868225
0.0891113
0.091095
0.0924683
0.0927734
0.0935364
0.0930786
0.0932312
0.0933838
0.0935364
0.0944519
0.0956726
0.0979614
0.100098
0.102997
0.105743
0.109253
0.112305
0.115356
0.117645
0.120087
0.121765
0.122681
0.123291
0.122986
0.122528
0.12207
0.121155
0.121155
0.120544
0.120392
0.121307
0.122375
0.124512
0.126648
0.128937
0.131226
0.133362
0.134888
0.136566
0.137177
0.136871
0.135956
0.13443
0.132294
0.129547
0.127106
0.124664
0.121765
0.120087
0.118103
0.117493
0.116882
0.117188
0.117493
0.118408
0.119019
0.119781
0.120239
0.12085
0.121002
0.120239
0.118713
0.116425
0.113983
0.110931
0.108337
0.104675
0.102234
0.0990295
0.0967407
0.0949097
0.0939941
0.0932312
0.0927734
0.0926208
0.0923157
0.0918579
0.091095
0.0901794
0.0883484
0.0860596
0.0822449
0.0784302
0.0738525
0.0686646
0.063324
0.0578308
0.0523376
0.0469971
0.0424194
0.0387573
0.0350952
0.0323486
0.0302124
0.0276184
0.0256348
0.0236511
0.0216675
0.0192261
0.0167847
0.0132751
0.00915527
0.00488281
0.000152588
-0.00549316
-0.0105286
-0.0161743
-0.0216675
-0.0265503
-0.0309753
-0.0346375
-0.0382996
-0.0404358
-0.0422668
-0.0447083
-0.0460815
-0.0476074
-0.0494385
-0.0511169
-0.0534058
-0.0561523
-0.0590515
-0.0630188
-0.0668335
-0.0708008
-0.0744629
-0.078125
-0.0814819
-0.0839233
-0.0860596
-0.0866699
-0.0871277
-0.0868225
-0.085144
-0.0840759
-0.0820923
-0.080719
-0.0787354
-0.0770569
-0.0762939
-0.075531
-0.0752258
-0.0762939
-0.0776672
-0.0788879
-0.0802612
-0.0817871
-0.0831604
-0.0842285
-0.0846863
-0.0842285
-0.083313
-0.0817871
-0.0801086
-0.0779724
-0.0750732
-0.0730896
-0.0704956
-0.0686646
-0.0671387
-0.0660706
-0.0657654
-0.0660706
-0.0665283
-0.0669861
-0.0675964
-0.0683594
-0.0689697
-0.0686646
-0.0679016
-0.0672913
-0.065918
-0.0637817
-0.0616455
-0.0585938
-0.0558472
-0.0534058
-0.0511169
-0.0492859
-0.0476074
-0.0469971
-0.0474548
-0.0482178
-0.0492859
-0.0514221
-0.0531006
-0.0547791
-0.0572205
-0.0584412
-0.0592041
-0.0595093
-0.0593567
-0.058136
-0.0569153
-0.0550842
-0.052948
-0.0512695
-0.0492859
-0.0476074
-0.0462341
-0.0457764
-0.045929
-0.0460815
-0.0471497
-0.0480652
-0.0491333
-0.0502014
-0.0508118
-0.0515747
-0.0515747
-0.0508118
-0.0497437
-0.0476074
-0.0456238
-0.0431824
-0.0405884
-0.038147
-0.0358582
-0.0340271
-0.0331116
-0.0323486
-0.0332642
-0.0340271
-0.035553
-0.0372314
-0.0390625
-0.0410461
-0.0430298
-0.0448608
-0.0460815
-0.0468445
-0.0460815
-0.0453186
-0.0444031
-0.042572
-0.0405884
-0.0393677
-0.0376892
-0.0366211
-0.0354004
-0.0357056
-0.0361633
-0.037384
-0.0387573
-0.0405884
-0.0421143
-0.0439453
-0.0454712
-0.0471497
-0.0482178
-0.0488281
-0.0485229
-0.0480652
-0.0468445
-0.0456238
-0.0439453
-0.0430298
-0.0415039
-0.0404358
-0.0401306
-0.0405884
-0.0413513
-0.0430298
-0.0454712
-0.0474548
-0.0498962
-0.0526428
-0.0547791
-0.0566101
-0.0584412
-0.0587463
-0.0590515
-0.0584412
-0.0576782
-0.0558472
-0.0547791
-0.052948
-0.0518799
-0.0511169
-0.0508118
-0.0506592
-0.0517273
-0.0527954
-0.0549316
-0.0572205
-0.0596619
-0.0619507
-0.0640869
-0.0662231
-0.0674438
-0.0679016
-0.0679016
-0.0671387
-0.0656128
-0.0640869
-0.0630188
-0.0614929
-0.0598145
-0.0585938
-0.057373
-0.0572205
-0.057373
-0.058136
-0.0588989
-0.0598145
-0.0616455
-0.0630188
-0.0640869
-0.0648499
-0.0654602
-0.065155
-0.0645447
-0.0628662
-0.0614929
-0.0592041
-0.0572205
-0.0552368
-0.0535583
-0.0520325
-0.0512695
-0.0509644
-0.0511169
-0.0521851
-0.0535583
-0.0553894
-0.0570679
-0.058136
-0.059967
-0.06073
-0.0611877
-0.0610352
-0.0595093
-0.0576782
-0.0556946
-0.0532532
-0.0508118
-0.0482178
-0.0462341
-0.0440979
-0.0428772
-0.042572
-0.0427246
-0.0440979
-0.045166
-0.0471497
-0.0489807
-0.0511169
-0.0532532
-0.0549316
-0.0558472
-0.0566101
-0.0566101
-0.0553894
-0.0537109
-0.0521851
-0.0498962
-0.0483704
-0.0468445
-0.0445557
-0.0439453
-0.0430298
-0.0430298
-0.0439453
-0.0450134
-0.0466919
-0.0488281
-0.0497437
-0.0515747
-0.0526428
-0.0531006
-0.0531006
-0.0523376
-0.0512695
-0.050354
-0.0482178
-0.0468445
-0.045166
-0.0439453
-0.0430298
-0.0424194
-0.042572
-0.0436401
-0.0447083
-0.0463867
-0.0486755
-0.0502014
-0.0518799
-0.0534058
-0.0544739
-0.0544739
-0.0540161
-0.0526428
-0.0508118
-0.0480652
-0.045166
-0.0422668
-0.0390625
-0.0361633
-0.0337219
-0.0314331
-0.0294495
-0.0276184
-0.0265503
-0.0256348
-0.0248718
-0.0238037
-0.0231934
-0.0221252
-0.020752
-0.0184631
-0.0157166
-0.0119019
-0.00762939
-0.00259399
0.00244141
0.00778198
0.0128174
0.0175476
0.022583
0.0260925
0.0296021
0.032196
0.0344849
0.0350952
0.0363159
0.0367737
0.0375366
0.038147
0.0389099
0.0398254
0.0419617
0.0445557
0.0474548
0.0515747
0.0550842
0.0585938
0.0617981
0.065155
0.067749
0.0700378
0.0714111
0.0726318
0.0724792
0.0721741
0.0717163
0.0708008
0.0694275
0.0689697
0.0682068
0.0679016
0.0680542
0.0692749
0.0708008
0.0720215
0.0740051
0.0758362
0.0769043
0.0775146
0.078125
0.0778198
0.0769043
0.0741577
0.0712585
0.0668335
0.0613403
0.0563049
0.0497437
0.0431824
0.0363159
0.0297546
0.0228882
0.0164795
0.00991821
0.0038147
-0.00244141
-0.00854492
-0.0144958
-0.0209045
-0.0273132
-0.0341797
-0.0410461
-0.0483704
-0.0558472
-0.0631714
-0.0700378
-0.0765991
-0.0823975
-0.087738
-0.0918579
-0.0953674
-0.0970459
-0.0982666
-0.0982666
-0.0971985
-0.096283
-0.0933838
-0.0914001
-0.0886536
-0.0862122
-0.0843811
-0.0827026
-0.0822449
-0.0817871
-0.0823975
-0.0823975
-0.0830078
-0.0834656
-0.0836182
-0.0837708
-0.0830078
-0.0820923
-0.0801086
-0.0782776
-0.0756836
-0.072937
-0.0698853
-0.0672913
-0.0648499
-0.062561
-0.0605774
-0.0598145
-0.059967
-0.059967
-0.0614929
-0.062561
-0.0639343
-0.065155
-0.0663757
-0.0672913
-0.0672913
-0.0668335
-0.0654602
-0.0640869
-0.0614929
-0.0585938
-0.0559998
-0.0532532
-0.0509644
-0.0486755
-0.0473022
-0.0466919
-0.0468445
-0.0476074
-0.0492859
-0.0520325
-0.0549316
-0.0575256
-0.0605774
-0.0640869
-0.0669861
-0.0692749
-0.0715637
-0.072937
-0.0735474
-0.0733948
-0.072937
-0.0718689
-0.0692749
-0.0654602
-0.0605774
-0.0537109
-0.0450134
-0.0332642
-0.0184631
0.0
0.0222778
0.0488281
0.0790405
0.114441
0.153809
0.197296
0.245667
0.297241
0.35202
0.409698
0.469513
0.529785
0.5896
0.647888
0.701447
0.750122
0.791779
0.827332
0.855103
0.874481
0.88623
0.888214
0.880737
0.863953
0.836792
0.800476
0.755005
0.700989
0.639648
0.572205
0.499573
0.423279
0.344543
0.264587
0.184021
0.104675
0.0273132
-0.0473022
-0.117645
-0.182648
-0.241241
-0.292511
-0.335999
-0.371246
-0.397949
-0.416412
-0.426636
-0.429077
-0.424957
-0.414734
-0.400238
-0.381927
-0.360718
-0.337677
-0.313721
-0.290222
-0.266876
-0.244446
-0.223541
-0.20401
-0.186005
-0.169678
-0.154419
-0.141449
-0.129089
-0.118713
-0.108643
-0.100708
-0.093689
-0.0881958
-0.0840759
-0.0813293
-0.0791931
-0.0788879
-0.0794983
-0.0817871
-0.0846863
-0.088501
-0.0921631
-0.096283
-0.100861
-0.103607
-0.106812
-0.109253
-0.110474
-0.110474
-0.109711
-0.108337
-0.105591
-0.102539
-0.098877
-0.0949097
-0.091095
-0.0872803
-0.0839233
-0.0814819
-0.0793457
-0.0778198
-0.0773621
-0.0765991
-0.0767517
-0.0767517
-0.0770569
-0.0770569
-0.0761414
-0.0749207
-0.0735474
-0.0715637
-0.0692749
-0.0669861
-0.0646973
-0.0624084
-0.0601196
-0.0588989
-0.0579834
-0.057373
-0.0576782
-0.0590515
-0.0601196
-0.0619507
-0.0634766
-0.065155
-0.0663757
-0.0672913
-0.0679016
-0.0671387
-0.0665283
-0.0646973
-0.0621033
-0.0593567
-0.0566101
-0.0532532
-0.0505066
-0.04776
-0.0454712
-0.0437927
-0.0427246
-0.0424194
-0.0421143
-0.0419617
-0.0419617
-0.0422668
-0.0419617
-0.0415039
-0.0411987
-0.0395203
-0.0375366
-0.0350952
-0.0320435
-0.0291443
-0.0268555
-0.0236511
-0.0209045
-0.0193787
-0.0175476
-0.0170898
-0.0169373
-0.0175476
-0.0186157
-0.0198364
-0.0210571
-0.0222778
-0.0233459
-0.0239563
-0.0241089
-0.0234985
-0.0222778
-0.0202942
-0.0180054
-0.0152588
-0.0123596
-0.00946045
-0.00671387
-0.00427246
-0.00259399
-0.0012207
-0.000457764
-0.000305176
-0.000457764
-0.000915527
-0.00167847
-0.00228882
-0.00274658
-0.00320435
-0.00274658
-0.00137329
0.000152588
0.00259399
0.00488281
0.00778198
0.0106812
0.0138855
0.0164795
0.0192261
0.0212097
0.022583
0.0233459
0.0241089
0.0241089
0.0234985
0.0236511
0.0238037
0.0236511
0.0238037
0.025177
0.0268555
0.0292969
0.0323486
0.0357056
0.0393677
0.0424194
0.0460815
0.0492859
0.0520325
0.0546265
0.0564575
0.0567627
0.0572205
0.0567627
0.0564575
0.0553894
0.0550842
0.0543213
0.0543213
0.0547791
0.0559998
0.058136
0.06073
0.0634766
0.0665283
0.0700378
0.0733948
0.0765991
0.0790405
0.0819397
0.0836182
0.0848389
0.0856018
0.0865173
0.0868225
0.0869751
0.0872803
0.087738
0.0886536
0.0897217
0.0918579
0.0946045
0.098114
0.102081
0.105896
0.109863
0.114136
0.117493
0.120697
0.123444
0.125275
0.126495
0.126953
0.126953
0.12619
0.125732
0.124969
0.124512
0.124207
0.123901
0.124359
0.125885
0.127411
0.1297
0.131989
0.134583
0.137177
0.139771
0.141754
0.14328
0.144501
0.144501
0.144043
0.142975
0.142517
0.141144
0.139771
0.138855
0.137939
0.137634
0.137939
0.138855
0.140381
0.141602
0.143585
0.145264
0.146942
0.148315
0.149078
0.149231
0.148926
0.147705
0.145721
0.143585
0.140533
0.138397
0.135651
0.133057
0.13092
0.1297
0.128174
0.128174
0.128174
0.128632
0.129547
0.130157
0.130463
0.131378
0.131683
0.130615
0.129547
0.127563
0.124359
0.121613
0.118408
0.114441
0.111237
0.107574
0.104218
0.101471
0.0991821
0.0978088
0.0964355
0.09552
0.0949097
0.0941467
0.0930786
0.0921631
0.0906372
0.0880432
0.0846863
0.080719
0.0765991
0.071106
0.0657654
0.0598145
0.0546265
0.0488281
0.0434875
0.0390625
0.0344849
0.0309753
0.0280762
0.0253296
0.0231934
0.0212097
0.0187683
0.0163269
0.0138855
0.0115967
0.00808716
0.00427246
0.000610352
-0.00366211
-0.00869751
-0.0125122
-0.0163269
-0.019989
-0.0233459
-0.0256348
-0.0276184
-0.0280762
-0.0280762
-0.0279236
-0.0271606
-0.0262451
-0.0253296
-0.0248718
-0.0242615
-0.0242615
-0.0250244
-0.0263977
-0.0280762
-0.030365
-0.0334167
-0.0360107
-0.0390625
-0.0421143
-0.0447083
-0.0468445
-0.0480652
-0.0486755
-0.0486755
-0.0482178
-0.0474548
-0.0466919
-0.045166
-0.0437927
-0.042572
-0.0418091
-0.0413513
-0.0418091
-0.0421143
-0.0434875
-0.0444031
-0.045166
-0.0457764
-0.0468445
-0.0471497
-0.0465393
-0.045166
-0.043335
-0.0416565
-0.0390625
-0.0361633
-0.0334167
-0.0305176
-0.0286865
-0.0268555
-0.0254822
-0.0254822
-0.0256348
-0.0265503
-0.0279236
-0.0294495
-0.0312805
-0.0331116
-0.0343323
-0.0357056
-0.0358582
-0.0354004
-0.0346375
-0.032959
-0.0308228
-0.0283813
-0.0257874
-0.0234985
-0.0213623
-0.0192261
-0.0178528
-0.017395
-0.0170898
-0.0177002
-0.0186157
-0.0202942
-0.0215149
-0.0224304
-0.0236511
-0.0247192
-0.025177
-0.0245667
-0.0234985
-0.0215149
-0.019989
-0.017395
-0.0151062
-0.0128174
-0.0108337
-0.00915527
-0.00778198
-0.00717163
-0.00717163
-0.00808716
-0.00915527
-0.0105286
-0.0119019
-0.0132751
-0.0151062
-0.0160217
-0.0166321
-0.0164795
-0.0157166
-0.0143433
-0.01297
-0.0109863
-0.00900269
-0.00747681
-0.00564575
-0.00411987
-0.00366211
-0.00366211
-0.00411987
-0.00488281
-0.00656128
-0.00823975
-0.0100708
-0.0120544
-0.0135803
-0.014801
-0.0158691
-0.0158691
-0.0151062
-0.0140381
-0.0125122
-0.0111389
-0.00915527
-0.00778198
-0.0062561
-0.00534058
-0.00457764
-0.00534058
-0.00610352
-0.00762939
-0.00915527
-0.0115967
-0.0138855
-0.0157166
-0.0177002
-0.0193787
-0.0204468
-0.0202942
-0.019989
-0.0189209
-0.0172424
-0.0154114
-0.0137329
-0.0119019
-0.0100708
-0.00930786
-0.00869751
-0.00869751
-0.00946045
-0.0109863
-0.0126648
-0.0146484
-0.0169373
-0.0189209
-0.020752
-0.022583
-0.0234985
-0.0238037
-0.0238037
-0.0228882
-0.0218201
-0.019989
-0.0183105
-0.0163269
-0.0146484
-0.0131226
-0.0123596
-0.012207
-0.0126648
-0.0135803
-0.0144958
-0.0158691
-0.017395
-0.0187683
-0.0201416
-0.0212097
-0.0218201
-0.0212097
-0.020752
-0.0193787
-0.0180054
-0.0161743
-0.0141907
-0.0126648
-0.0109863
-0.00946045
-0.0088501
-0.00930786
-0.0100708
-0.0114441
-0.0132751
-0.0152588
-0.0175476
-0.0192261
-0.0212097
-0.0230408
-0.0239563
-0.0242615
-0.0236511
-0.0228882
-0.0213623
-0.0192261
-0.017395
-0.0157166
-0.0138855
-0.0123596
-0.0109863
-0.010376
-0.0106812
-0.0109863
-0.0111389
-0.0114441
-0.0120544
-0.012207
-0.0114441
-0.00991821
-0.00823975
-0.0050354
-0.000915527
0.00335693
0.00900269
0.014801
0.0209045
0.027771
0.0334167
0.0396729
0.0448608
0.0492859
0.052948
0.0559998
0.0585938
0.06073
0.062561
0.0637817
0.065155
0.0666809
0.0686646
0.0708008
0.0732422
0.0764465
0.0793457
0.08255
0.0856018
0.0889587
0.091095
0.0930786
0.0944519
0.0947571
0.0944519
0.0941467
0.092926
0.0917053
0.0904846
0.0895691
0.0883484
0.0871277
0.0872803
0.0874329
0.0883484
0.0900269
0.0915527
0.0935364
0.0956726
0.0968933
0.098877
0.0991821
0.0996399
0.098877
0.0968933
0.0946045
0.091095
0.0872803
0.0828552
0.0779724
0.0730896
0.0675964
0.0622559
0.0570679
0.0523376
0.0474548
0.0427246
0.0378418
0.0325012
