-0.00106812
-0.000915527
-0.00137329
-0.00213623
-0.00274658
-0.00320435
-0.00335693
-0.0038147
-0.00396729
-0.00396729
-0.00350952
-0.00366211
-0.00305176
-0.00244141
-0.00198364
-0.00137329
-0.000762939
-0.000610352
-0.000305176
0.000152588
0.000457764
-0.000305176
-0.000610352
-0.00167847
-0.00228882
-0.00305176
-0.0038147
-0.00427246
-0.00488281
-0.0050354
-0.00518799
-0.00488281
-0.00473022
-0.00411987
-0.00366211
-0.00366211
-0.00305176
-0.00228882
-0.00259399
-0.00274658
-0.00320435
-0.00274658
-0.0038147
-0.00427246
-0.00457764
-0.00488281
-0.00564575
-0.00549316
-0.00564575
-0.00534058
-0.00457764
-0.00427246
-0.00350952
-0.00183105
-0.000915527
-0.000152588
0.000915527
0.00167847
0.00198364
0.00213623
0.00167847
0.00167847
0.000915527
0.0
-0.000457764
-0.00152588
-0.00244141
-0.00289917
-0.00366211
-0.00411987
-0.00396729
-0.00411987
-0.0038147
-0.00335693
-0.00259399
-0.00228882
-0.00152588
-0.00152588
-0.00106812
-0.000915527
-0.000762939
-0.000915527
-0.0012207
-0.00183105
-0.00259399
-0.00320435
-0.00335693
-0.00427246
-0.00457764
-0.00473022
-0.00488281
-0.00488281
-0.00457764
-0.0038147
-0.00320435
-0.00259399
-0.00228882
-0.00198364
-0.00213623
-0.00198364
-0.00137329
-0.00152588
-0.00228882
-0.00259399
-0.00350952
-0.00335693
-0.00366211
-0.00396729
-0.0038147
-0.00350952
-0.00305176
-0.00289917
-0.00198364
-0.000915527
0.000305176
0.00106812
0.00167847
0.00213623
0.00244141
0.00259399
0.00305176
0.00274658
0.00198364
0.00152588
0.000762939
0.000152588
-0.000457764
-0.000610352
-0.0012207
-0.00137329
-0.00106812
-0.00152588
-0.0012207
-0.000762939
-0.000305176
-0.000152588
0.000152588
0.000610352
0.000610352
0.000762939
0.000915527
0.000457764
0.000305176
-0.000610352
-0.00137329
-0.00228882
-0.00244141
-0.00244141
-0.00289917
-0.00274658
-0.00244141
-0.00228882
-0.00167847
-0.000762939
0.000305176
0.00106812
0.00167847
0.00198364
0.00213623
0.00274658
0.00259399
0.00228882
0.00198364
0.00137329
0.000610352
-0.000305176
-0.00106812
-0.00152588
-0.00152588
-0.00183105
-0.00198364
-0.00152588
-0.00137329
-0.000762939
-0.000152588
0.000152588
0.000762939
0.000457764
0.000457764
0.000610352
0.000305176
0.000152588
-0.000457764
-0.00152588
-0.00244141
-0.00320435
-0.00350952
-0.00396729
-0.00427246
-0.00442505
-0.00442505
-0.00396729
-0.00335693
-0.00244141
-0.00152588
-0.000610352
0.0
0.000762939
0.0012207
0.00167847
0.00167847
0.00198364
0.00152588
0.000762939
0.000305176
0.0
-0.000610352
-0.000915527
-0.00106812
-0.00137329
-0.00152588
-0.00167847
-0.0012207
-0.000762939
-0.000457764
0.0
0.0
0.0
0.000152588
0.0
-0.000152588
-0.000305176
-0.000915527
-0.00213623
-0.00244141
-0.00335693
-0.00335693
-0.0038147
-0.0038147
-0.00350952
-0.00335693
-0.00274658
-0.00183105
-0.0012207
0.0
0.000457764
0.00137329
0.00198364
0.00244141
0.00259399
0.00244141
0.00183105
0.00137329
0.000457764
0.0
-0.000610352
-0.00152588
-0.00228882
-0.00244141
-0.00274658
-0.00320435
-0.00274658
-0.00228882
-0.00183105
-0.00137329
-0.000915527
-0.000762939
-0.000457764
-0.000152588
-0.000305176
0.000152588
-0.000457764
-0.000457764
-0.000915527
-0.00137329
-0.00183105
-0.00198364
-0.00213623
-0.00213623
-0.00213623
-0.00183105
-0.00152588
-0.000915527
0.000610352
0.00106812
0.00152588
0.00198364
0.00274658
0.00289917
0.00320435
0.00289917
0.00274658
0.00167847
0.00106812
-0.000305176
-0.000915527
-0.00183105
-0.00228882
-0.00274658
-0.00335693
-0.00366211
-0.00366211
-0.00320435
-0.00289917
-0.00228882
-0.00213623
-0.0012207
-0.0012207
-0.000610352
-0.00106812
-0.000762939
-0.000915527
-0.00106812
-0.00167847
-0.00198364
-0.00289917
-0.00320435
-0.00335693
-0.00335693
-0.00350952
-0.0038147
-0.00320435
-0.00274658
-0.00198364
-0.00137329
-0.00106812
-0.000305176
-0.000152588
-0.000152588
0.000152588
0.000152588
0.0
-0.000457764
-0.00106812
-0.00183105
-0.00244141
-0.00320435
-0.00335693
-0.00350952
-0.00320435
-0.00350952
-0.00320435
-0.00274658
-0.00167847
-0.000762939
-0.000457764
0.0
0.000305176
0.000610352
0.000762939
0.000915527
0.000457764
-0.000152588
-0.000915527
-0.0012207
-0.00244141
-0.00335693
-0.00350952
-0.0038147
-0.00396729
-0.0038147
-0.00396729
-0.00350952
-0.00305176
-0.00228882
-0.00167847
-0.0012207
-0.000915527
-0.000610352
-0.000610352
-0.000762939
-0.000610352
-0.00106812
-0.00183105
-0.00244141
-0.00244141
-0.00305176
-0.00320435
-0.00320435
-0.00320435
-0.00289917
-0.00244141
-0.00183105
-0.00106812
-0.000152588
0.000457764
0.0012207
0.0012207
0.00167847
0.00198364
0.00183105
0.00137329
0.000762939
0.0
-0.000915527
-0.00167847
-0.00213623
-0.00289917
-0.00350952
-0.0038147
-0.00396729
-0.00396729
-0.0038147
-0.00366211
-0.00289917
-0.00289917
-0.00228882
-0.00213623
-0.00183105
-0.00183105
-0.00167847
-0.00213623
-0.00244141
-0.00274658
-0.0038147
-0.00427246
-0.00457764
-0.00473022
-0.00442505
-0.00473022
-0.00427246
-0.00366211
-0.00320435
-0.00213623
-0.00106812
-0.000762939
0.0
0.000152588
0.000915527
0.000762939
0.00137329
0.000610352
0.0
-0.000457764
-0.00137329
-0.00167847
-0.00198364
-0.00289917
-0.00320435
-0.00305176
-0.00335693
-0.00350952
-0.00320435
-0.00228882
-0.00183105
-0.00137329
-0.0012207
-0.000915527
-0.000610352
-0.000915527
-0.000762939
-0.000915527
-0.00198364
-0.00244141
-0.00335693
-0.00411987
-0.00488281
-0.00564575
-0.00595093
-0.00564575
-0.00595093
-0.00610352
-0.00549316
-0.00442505
-0.00411987
-0.00335693
-0.00305176
-0.00244141
-0.00152588
-0.00167847
-0.00106812
-0.00137329
-0.00152588
-0.00183105
-0.00259399
-0.00305176
-0.00350952
-0.00396729
-0.00366211
-0.00366211
-0.00366211
-0.00335693
-0.00274658
-0.00228882
-0.00183105
-0.00137329
-0.000915527
-0.000762939
-0.000762939
-0.00106812
-0.0012207
-0.00198364
-0.00244141
-0.00366211
-0.00473022
-0.00534058
-0.00579834
-0.00610352
-0.0062561
-0.0062561
-0.00564575
-0.00534058
-0.00427246
-0.00350952
-0.00228882
-0.00167847
-0.000457764
-0.000152588
0.0
0.000762939
0.000915527
0.000762939
0.000457764
-0.000152588
-0.00137329
-0.00152588
-0.00244141
-0.00274658
-0.00320435
-0.00335693
-0.00335693
-0.00305176
-0.00305176
-0.00228882
-0.00183105
-0.0012207
-0.00137329
-0.000762939
-0.000610352
-0.000762939
-0.000762939
-0.0012207
-0.00137329
-0.00198364
-0.00289917
-0.00366211
-0.0038147
-0.0038147
-0.00396729
-0.00396729
-0.00366211
-0.00350952
-0.00274658
-0.00198364
-0.00106812
-0.000305176
0.000610352
0.00106812
0.000915527
0.00137329
0.00167847
0.0012207
0.00152588
0.000457764
0.000305176
0.0
-0.000457764
-0.000305176
-0.000305176
-0.000152588
0.0
0.000457764
0.0012207
0.00198364
0.00244141
0.00320435
0.00335693
0.00350952
0.00411987
0.00366211
0.0038147
0.0038147
-0.0909424
-0.0868225
-0.0813293
-0.075531
-0.0686646
-0.0617981
-0.0552368
-0.0482178
-0.0418091
-0.0354004
-0.0300598
-0.0245667
-0.0198364
-0.0149536
-0.0109863
-0.00686646
-0.0038147
-0.000457764
0.00274658
0.0062561
0.0088501
0.0120544
0.0149536
0.0170898
0.0196838
0.0221252
0.0244141
0.0265503
0.0286865
0.0311279
0.0337219
0.0366211
0.0396729
0.0428772
0.0471497
0.0514221
0.0564575
0.0608826
0.0656128
0.0704956
0.0744629
0.0784302
0.0811768
0.0836182
0.0843811
0.0849915
0.0845337
0.0837708
0.0827026
0.0816345
0.0805664
0.0791931
0.0787354
0.0784302
0.0782776
0.0787354
0.0796509
0.0808716
0.0823975
0.0845337
0.0868225
0.0900269
0.0939941
0.098114
0.102844
0.107727
0.113373
0.118866
0.124664
0.130005
0.135345
0.140839
0.146484
0.15152
0.156708
0.161896
0.166779
0.171967
0.176392
0.180054
0.183258
0.185547
0.186615
0.185547
0.184021
0.180664
0.176239
0.171356
0.165863
0.159912
0.154114
0.149384
0.145111
0.141296
0.13916
0.137634
0.137329
0.137787
0.13855
0.140228
0.142975
0.146332
0.149841
0.153809
0.157928
0.162048
0.166779
0.169525
0.172729
0.174713
0.175018
0.174713
0.172729
0.169067
0.163879
0.157318
0.149078
0.139618
0.128937
0.117188
0.104523
0.091095
0.0769043
0.0627136
0.04776
0.0335693
0.0190735
0.00579834
-0.00671387
-0.0177002
-0.0271606
-0.0352478
-0.0415039
-0.0465393
-0.0506592
-0.0535583
-0.0558472
-0.057373
-0.0578308
-0.058136
-0.0585938
-0.0592041
-0.0595093
-0.0604248
-0.0614929
-0.0622559
-0.0640869
-0.0665283
-0.0691223
-0.0721741
-0.0759888
-0.0796509
-0.0840759
-0.0883484
-0.0926208
-0.0967407
-0.100861
-0.104523
-0.108337
-0.111542
-0.114746
-0.117798
-0.120392
-0.122375
-0.123444
-0.124512
-0.125275
-0.125427
-0.12558
-0.125427
-0.124207
-0.123901
-0.122375
-0.12085
-0.119171
-0.117188
-0.115356
-0.113068
-0.110779
-0.108185
-0.105743
-0.102997
-0.100861
-0.0991821
-0.0990295
-0.0990295
-0.10025
-0.102539
-0.106049
-0.109253
-0.11322
-0.117493
-0.12085
-0.124359
-0.127106
-0.129089
-0.130463
-0.130768
-0.130768
-0.13031
-0.128784
-0.127106
-0.125427
-0.123291
-0.121155
-0.119629
-0.117645
-0.116425
-0.115204
-0.113678
-0.112152
-0.111389
-0.110321
-0.108948
-0.107727
-0.106812
-0.105133
-0.104675
-0.103912
-0.103455
-0.102539
-0.102539
-0.102234
-0.101929
-0.101471
-0.101013
-0.100555
-0.0999451
-0.0990295
-0.0975037
-0.09552
-0.0932312
-0.0901794
-0.0866699
-0.0823975
-0.0784302
-0.0740051
-0.0695801
-0.0650024
-0.06073
-0.0570679
-0.0534058
-0.050354
-0.04776
-0.0456238
-0.0439453
-0.0421143
-0.040741
-0.0389099
-0.0370789
-0.0352478
-0.0337219
-0.0326538
-0.0315857
-0.0317383
-0.0325012
-0.0337219
-0.0352478
-0.0370789
-0.0395203
-0.0415039
-0.0448608
-0.0483704
-0.0521851
-0.0567627
-0.0616455
-0.0665283
-0.0718689
-0.0770569
-0.0830078
-0.0886536
-0.0947571
-0.100708
-0.106049
-0.111694
-0.115967
-0.119781
-0.122528
-0.124054
-0.124512
-0.123749
-0.121613
-0.118561
-0.114594
-0.109253
-0.104218
-0.0990295
-0.0926208
-0.087738
-0.0820923
-0.0772095
-0.0723267
-0.0682068
-0.0643921
-0.0613403
-0.0590515
-0.0570679
-0.0561523
-0.0553894
-0.0550842
-0.0549316
-0.0559998
-0.0567627
-0.0584412
-0.0604248
-0.062561
-0.0645447
-0.065918
-0.0674438
-0.0680542
-0.0686646
-0.0675964
-0.0674438
-0.0657654
-0.0640869
-0.0621033
-0.0602722
-0.058136
-0.0556946
-0.0535583
-0.0517273
-0.0500488
-0.0489807
-0.0482178
-0.0471497
-0.0468445
-0.0466919
-0.0468445
-0.0469971
-0.0476074
-0.0480652
-0.0483704
-0.0485229
-0.0483704
-0.0482178
-0.0471497
-0.0460815
-0.0444031
-0.0428772
-0.040741
-0.0382996
-0.035553
-0.0328064
-0.030365
-0.0273132
-0.0244141
-0.0216675
-0.0187683
-0.0169373
-0.0146484
-0.01297
-0.0114441
-0.00961304
-0.0088501
-0.00839233
-0.00823975
-0.00793457
-0.0088501
-0.00930786
-0.0108337
-0.0126648
-0.0144958
-0.017395
-0.0202942
-0.0231934
-0.0262451
-0.0291443
-0.0318909
-0.03479
-0.0375366
-0.0398254
-0.0424194
-0.0445557
-0.0462341
-0.0474548
-0.0476074
-0.0468445
-0.0448608
-0.0419617
-0.0382996
-0.0338745
-0.0291443
-0.0239563
-0.0193787
-0.0151062
-0.0120544
-0.00946045
-0.00808716
-0.00808716
-0.00854492
-0.0105286
-0.0131226
-0.0166321
-0.0205994
-0.0248718
-0.0296021
-0.0352478
-0.040741
-0.0457764
-0.0515747
-0.0564575
-0.0610352
-0.065155
-0.0686646
-0.0715637
-0.0730896
-0.0737
-0.0727844
-0.0715637
-0.0674438
-0.062561
-0.0556946
-0.0476074
-0.038147
-0.0283813
-0.0175476
-0.00686646
0.00335693
0.0132751
0.0224304
0.0306702
0.0378418
0.0430298
0.0479126
0.0515747
0.0544739
0.0567627
0.0579834
0.0588989
0.0585938
0.0570679
0.0544739
0.0505066
0.045166
0.0387573
0.0308228
0.0215149
0.0115967
0.000610352
-0.0100708
-0.0212097
-0.0312805
-0.0413513
-0.0505066
-0.0584412
-0.0662231
-0.0724792
-0.078125
-0.0830078
-0.0865173
-0.0892639
-0.0909424
-0.0918579
-0.0906372
-0.0886536
-0.0852966
-0.0808716
-0.0758362
-0.0692749
-0.0624084
-0.0550842
-0.0480652
-0.0410461
-0.0343323
-0.0280762
-0.0227356
-0.017395
-0.0138855
-0.0114441
-0.00930786
-0.00839233
-0.00823975
-0.00839233
-0.00823975
-0.00854492
-0.00946045
-0.00976562
-0.010376
-0.0100708
-0.00930786
-0.00839233
-0.00701904
-0.00549316
-0.0038147
-0.000915527
0.0012207
0.00488281
0.00823975
0.0126648
0.0170898
0.0210571
0.0250244
0.0283813
0.0306702
0.0320435
0.032196
0.0318909
0.0311279
0.0297546
0.0283813
0.0270081
0.0260925
0.0253296
0.0244141
0.0238037
0.0233459
0.0228882
0.0227356
0.0224304
0.0219727
0.0219727
0.0219727
0.0219727
0.0224304
0.022583
0.0238037
0.0245667
0.025177
0.0256348
0.0263977
0.0260925
0.0259399
0.0253296
0.0238037
0.0219727
0.0196838
0.0161743
0.0125122
0.00854492
0.00442505
0.0012207
-0.00167847
-0.00320435
-0.00366211
-0.00259399
-0.000457764
0.00305176
0.00762939
0.01297
0.0190735
0.0253296
0.0315857
0.0378418
0.0428772
0.04776
0.0515747
0.0544739
0.0569153
0.0593567
0.0605774
0.0617981
0.0619507
0.0619507
0.0617981
0.0611877
0.0602722
0.0596619
0.058136
0.0566101
0.0546265
0.0523376
0.0494385
0.0466919
0.0431824
0.0392151
0.0338745
0.027771
0.0210571
0.0135803
0.00564575
-0.00335693
-0.0125122
-0.0221252
-0.0308228
-0.0390625
-0.0468445
-0.052948
-0.0579834
-0.0621033
-0.0654602
-0.0680542
-0.0697327
-0.070343
-0.0700378
-0.0701904
-0.0700378
-0.0698853
-0.0697327
-0.0701904
-0.0712585
-0.0724792
-0.0743103
-0.0769043
-0.0799561
-0.0836182
-0.087738
-0.0930786
-0.0985718
-0.104065
-0.110321
-0.11673
-0.122681
-0.128174
-0.132904
-0.137024
-0.139771
-0.141296
-0.142212
-0.141602
-0.140533
-0.138245
-0.135498
-0.131378
-0.127106
-0.122528
-0.117493
-0.111542
-0.106201
-0.100098
-0.0946045
-0.0894165
-0.0842285
-0.0801086
-0.0767517
-0.0735474
-0.0709534
-0.0689697
-0.0668335
-0.065155
-0.0640869
-0.0627136
-0.0621033
-0.0616455
-0.0617981
-0.0616455
-0.0624084
-0.0636292
-0.0656128
-0.0679016
-0.0701904
-0.0727844
-0.0762939
-0.0796509
-0.08255
-0.0862122
-0.0888062
-0.0909424
-0.0918579
-0.0918579
-0.0900269
-0.0862122
-0.0801086
-0.0721741
-0.0614929
-0.0488281
-0.0331116
-0.0144958
0.0062561
0.0302124
0.0558472
0.0837708
0.113831
0.145721
0.178986
0.214081
0.251312
0.289612
0.32959
0.370483
0.412292
0.454559
0.498352
0.542297
0.5867
0.631256
0.675507
0.718842
0.760193
0.798492
0.833588
0.863342
0.888519
0.906219
0.916595
0.917969
0.910187
0.893555
0.865784
0.828552
0.781403
0.724487
0.658417
0.582733
0.499573
0.411072
0.31723
0.2211
0.123444
0.0274658
-0.0671387
-0.157318
-0.24231
-0.320435
-0.390625
-0.451965
-0.504303
-0.545959
-0.578156
-0.600128
-0.611725
-0.613861
-0.606689
-0.591431
-0.569153
-0.541077
-0.509033
-0.473633
-0.436707
-0.399475
-0.362549
-0.327148
-0.294189
-0.263519
-0.236816
-0.212555
-0.192413
-0.175171
-0.161896
-0.151367
-0.143738
-0.138702
-0.135956
-0.134888
-0.135345
-0.136719
-0.138855
-0.141296
-0.144196
-0.146332
-0.148163
-0.149384
-0.149689
-0.149689
-0.149841
-0.148621
-0.147095
-0.144501
-0.141144
-0.137024
-0.132141
-0.12619
-0.120239
-0.113983
-0.108185
-0.102081
-0.0964355
-0.0917053
-0.0874329
-0.0842285
-0.0822449
-0.0811768
-0.0813293
-0.0820923
-0.0842285
-0.0869751
-0.090332
-0.0939941
-0.0979614
-0.102997
-0.107574
-0.112
-0.116425
-0.12085
-0.124054
-0.126953
-0.13031
-0.131683
-0.132599
-0.131683
-0.130157
-0.126953
-0.123291
-0.11795
-0.111389
-0.103607
-0.0953674
-0.0865173
-0.0776672
-0.0691223
-0.06073
-0.0535583
-0.0474548
-0.0422668
-0.0389099
-0.0358582
-0.0341797
-0.0337219
-0.0341797
-0.0357056
-0.0382996
-0.0422668
-0.0471497
-0.0527954
-0.0590515
-0.0665283
-0.0744629
-0.0828552
-0.0906372
-0.0984192
-0.105286
-0.111237
-0.116425
-0.119171
-0.121307
-0.121002
-0.119629
-0.116882
-0.112
-0.106354
-0.0994873
-0.0918579
-0.0840759
-0.0761414
-0.0683594
-0.0608826
-0.0537109
-0.0473022
-0.0411987
-0.0358582
-0.0315857
-0.0271606
-0.0242615
-0.0219727
-0.0201416
-0.0187683
-0.0175476
-0.0167847
-0.0161743
-0.0160217
-0.0160217
-0.015564
-0.014801
-0.0140381
-0.0134277
-0.0119019
-0.0108337
-0.00915527
-0.00778198
-0.00564575
-0.00366211
-0.00167847
0.000762939
0.00366211
0.00656128
0.00930786
0.012207
0.0151062
0.018158
0.0213623
0.0245667
0.0276184
0.030365
0.0331116
0.035553
0.0378418
0.0398254
0.0416565
0.0434875
0.0447083
0.0465393
0.0479126
0.0502014
0.052948
0.057373
0.062561
0.0689697
0.0772095
0.0856018
0.0958252
0.105591
0.115204
0.123749
0.130768
0.137024
0.141144
0.143738
0.144348
0.144196
0.142822
0.140533
0.137329
0.133362
0.128937
0.123291
0.11673
0.10849
0.0997925
0.090332
0.0811768
0.071106
0.0624084
0.0534058
0.0463867
0.0396729
0.0357056
0.032196
0.0306702
0.0311279
0.0328064
0.0363159
0.039978
0.0457764
0.0515747
0.0587463
0.0666809
0.0746155
0.0828552
0.0915527
0.100708
0.109711
0.118866
0.128326
0.137177
0.146179
0.155029
0.163116
0.170441
0.177612
0.183563
0.188599
0.193329
0.196533
0.198822
0.200348
0.2005
0.200653
0.199585
0.198212
0.196533
0.194092
0.191345
0.188293
0.184937
0.18158
0.178223
0.175476
0.172119
0.16922
0.166321
0.163727
0.160675
0.158081
0.155792
0.153351
0.150604
0.148163
0.145416
0.14267
0.139465
0.135956
0.132141
0.126343
0.119934
0.111542
0.101624
0.0909424
0.0779724
0.0640869
0.0492859
0.0346375
0.0189209
0.00366211
-0.0109863
-0.0254822
-0.0389099
-0.0520325
-0.0637817
-0.0743103
-0.0831604
-0.0907898
-0.0964355
-0.100403
-0.102539
-0.102539
-0.101318
-0.0982666
-0.0944519
-0.0901794
-0.0854492
-0.080719
-0.0761414
-0.0723267
-0.0692749
-0.0668335
-0.0657654
-0.0657654
-0.0672913
-0.0698853
-0.0744629
-0.0798035
-0.0874329
-0.0961304
-0.105438
-0.116425
-0.127258
-0.138397
-0.148926
-0.158997
-0.167999
-0.176239
-0.1828
-0.187531
-0.190582
-0.19165
-0.190582
-0.187988
-0.183411
-0.176849
-0.169067
-0.160217
-0.149536
-0.13855
-0.126801
-0.115356
-0.104065
-0.0938416
-0.0840759
-0.0759888
-0.0698853
-0.0648499
-0.0621033
-0.0610352
-0.0617981
-0.0637817
-0.0674438
-0.0726318
-0.0782776
-0.0849915
-0.0923157
-0.0996399
-0.107422
-0.115509
-0.122986
-0.130463
-0.137329
-0.144043
-0.148926
-0.153351
-0.15564
-0.156708
-0.156555
-0.154114
-0.150452
-0.145874
-0.140228
-0.133514
-0.12619
-0.118713
-0.111237
-0.102997
-0.0952148
-0.0871277
-0.0794983
-0.0723267
-0.065155
-0.0592041
-0.0546265
-0.0514221
-0.0486755
-0.0473022
-0.0466919
-0.0468445
-0.0473022
-0.0483704
-0.0495911
-0.0509644
-0.052948
-0.0550842
-0.058136
-0.0610352
-0.0646973
-0.0683594
-0.0724792
-0.0770569
-0.0810242
-0.0849915
-0.0881958
-0.0904846
-0.0917053
-0.0915527
-0.0904846
-0.0886536
-0.0852966
-0.0820923
-0.078125
-0.0738525
-0.0695801
-0.0657654
-0.0616455
-0.0585938
-0.055542
-0.0534058
-0.0521851
-0.0512695
-0.0518799
-0.052948
-0.0546265
-0.057373
-0.0610352
-0.0650024
-0.0695801
-0.0743103
-0.0782776
-0.0822449
-0.0852966
-0.0880432
-0.0894165
-0.0898743
-0.0889587
-0.0881958
-0.085144
-0.0822449
-0.0787354
-0.0752258
-0.071106
-0.0675964
-0.0640869
-0.0608826
-0.0578308
-0.0550842
-0.052948
-0.0506592
-0.0486755
-0.0466919
-0.0440979
-0.0421143
-0.0396729
-0.0378418
-0.0360107
-0.0344849
-0.0334167
-0.0325012
-0.0317383
-0.0309753
-0.0311279
-0.0306702
-0.0311279
-0.0320435
-0.0325012
-0.0337219
-0.03479
-0.0357056
-0.0375366
-0.0382996
-0.0398254
-0.0415039
-0.0428772
-0.0444031
-0.0456238
-0.0471497
-0.04776
-0.0486755
-0.0495911
-0.0500488
-0.050354
-0.0506592
-0.0505066
-0.0505066
-0.0497437
-0.0489807
-0.0473022
-0.0456238
-0.0436401
-0.0422668
-0.0410461
-0.0396729
-0.0386047
-0.0375366
-0.037384
-0.0367737
-0.0364685
-0.0363159
-0.0366211
-0.0370789
-0.0376892
-0.0389099
-0.0402832
-0.0419617
-0.0440979
-0.0462341
-0.0486755
-0.0511169
-0.0531006
-0.0550842
-0.0567627
-0.0582886
-0.0588989
-0.0593567
-0.0596619
-0.0592041
-0.0585938
-0.0572205
-0.0561523
-0.0547791
-0.052948
-0.0512695
-0.0492859
-0.04776
-0.0460815
-0.0445557
-0.0434875
-0.0427246
-0.0418091
-0.0413513
-0.0408936
-0.0404358
-0.0405884
-0.0404358
-0.0405884
-0.0405884
-0.0410461
-0.0411987
-0.0424194
-0.0430298
-0.0444031
-0.0456238
-0.0468445
-0.0482178
-0.0495911
-0.050354
-0.0511169
-0.0517273
-0.0517273
-0.0515747
-0.0508118
-0.0502014
-0.0492859
-0.0482178
-0.0471497
-0.0457764
-0.0445557
-0.0436401
-0.0422668
-0.0415039
-0.0408936
-0.0402832
-0.0396729
-0.0393677
-0.0390625
-0.0390625
-0.0389099
-0.0389099
-0.0389099
-0.0386047
-0.0390625
-0.0382996
-0.038147
-0.0384521
-0.0382996
-0.0384521
-0.0382996
-0.0384521
-0.0389099
-0.0389099
-0.0396729
-0.039978
-0.040741
-0.0419617
-0.0427246
-0.0439453
-0.0445557
-0.0453186
-0.0463867
-0.0468445
-0.0479126
-0.0485229
-0.0495911
-0.0500488
-0.0508118
-0.0517273
-0.0523376
-0.0527954
-0.0527954
-0.0532532
-0.0526428
-0.0523376
-0.0515747
-0.050354
-0.0491333
-0.04776
-0.0453186
-0.0427246
-0.039978
-0.0366211
-0.0331116
-0.0296021
-0.0257874
-0.0212097
-0.0164795
-0.0123596
-0.00778198
-0.00228882
0.00198364
0.0062561
0.0111389
0.0154114
0.0190735
0.0227356
0.0254822
0.027771
0.030365
0.0325012
0.0344849
0.0364685
0.0379944
0.0396729
0.0410461
0.0430298
0.045166
0.0471497
0.0494385
0.0512695
0.0534058
0.0547791
0.0564575
0.0575256
0.0584412
0.0593567
0.0598145
0.0604248
0.0613403
0.0622559
0.0634766
0.0648499
0.0662231
0.0674438
0.0692749
0.0712585
0.0733948
0.0750732
0.0769043
0.0788879
0.0804138
0.0819397
0.0830078
0.0831604
0.083313
0.0830078
0.0822449
0.0811768
0.0798035
0.0779724
0.0761414
0.0740051
0.0709534
0.0671387
0.0630188
0.0584412
0.0534058
0.0476074
0.0418091
0.0357056
0.0291443
0.022583
0.0157166
0.0088501
0.00152588
-0.00564575
-0.0128174
-0.0205994
-0.0276184
-0.0346375
-0.0416565
-0.0485229
-0.0549316
-0.0608826
-0.0663757
-0.0720215
-0.0767517
-0.0811768
-0.0849915
-0.0888062
-0.0920105
-0.0952148
-0.098114
-0.101166
-0.103149
-0.105896
-0.108337
-0.110016
-0.111847
-0.113068
-0.114441
-0.115051
-0.114899
-0.115051
-0.113983
-0.113373
-0.112152
-0.110931
-0.109558
-0.10849
-0.106964
-0.105896
-0.104828
-0.10437
-0.103912
-0.103149
-0.102844
-0.102844
-0.102386
-0.102234
-0.102081
-0.101471
-0.100708
-0.0996399
-0.0985718
-0.0970459
-0.0958252
-0.0946045
-0.0932312
-0.0918579
-0.0906372
-0.0897217
-0.0886536
-0.0883484
-0.0878906
-0.0872803
-0.0875854
-0.087738
-0.0875854
-0.0875854
-0.0875854
-0.087738
-0.0883484
-0.088501
-0.0889587
-0.0897217
-0.0909424
-0.0920105
-0.0932312
-0.0942993
-0.09552
-0.0968933
-0.0982666
-0.098877
-0.0997925
-0.100403
-0.10025
-0.0993347
-0.0976562
-0.0939941
-0.0891113
-0.0823975
-0.0737
-0.0619507
-0.0476074
-0.0309753
-0.0106812
0.012207
0.0382996
0.0660706
0.0973511
0.13092
0.166779
0.204773
0.244751
0.286407
0.329895
0.374298
0.419769
0.466156
0.51239
0.559845
0.606537
0.652771
0.696564
0.73822
0.776215
0.809479
0.836945
0.858154
0.871277
0.875397
0.870667
0.855713
0.830688
0.795746
0.751801
0.698547
0.636902
0.567322
0.490417
0.40741
0.319214
0.228271
0.134888
0.0419617
-0.0489807
-0.137634
-0.220947
-0.298004
-0.367889
-0.428772
-0.480804
-0.522919
-0.555115
-0.57785
-0.590515
-0.594177
-0.589447
-0.577698
-0.558929
-0.534973
-0.507202
-0.476074
-0.444031
-0.411224
-0.378876
-0.347748
-0.318451
-0.29129
-0.267792
-0.246124
-0.228577
-0.21347
-0.201874
-0.192566
-0.185547
-0.180969
-0.177307
-0.175171
-0.173798
-0.173187
-0.173187
-0.172882
-0.172882
-0.172577
-0.171814
-0.171051
-0.16983
-0.16861
-0.166931
-0.1651
-0.163422
-0.161285
-0.158997
-0.157013
-0.154266
-0.152283
-0.149384
-0.146484
-0.144806
-0.142212
-0.140381
-0.138092
-0.135651
-0.13382
-0.132294
-0.130768
-0.129089
-0.127716
-0.126648
-0.125732
-0.125122
-0.124359
-0.124207
-0.123901
-0.123291
-0.123291
-0.122986
-0.122833
-0.122223
-0.121307
-0.120544
-0.119171
-0.11795
-0.116577
-0.114899
-0.113525
-0.111847
-0.110626
-0.110016
-0.108948
-0.108185
-0.106964
-0.106964
-0.106659
-0.106964
-0.106659
-0.106812
-0.107117
-0.106812
-0.106964
-0.106812
-0.106201
-0.104828
-0.104065
-0.102692
-0.100861
-0.0990295
-0.0967407
-0.0947571
-0.0927734
-0.0909424
-0.0886536
-0.0868225
-0.0846863
-0.08255
-0.0804138
-0.0779724
-0.0750732
-0.0723267
-0.0692749
-0.0660706
-0.0628662
-0.0598145
-0.0566101
-0.0534058
-0.0505066
-0.04776
-0.0456238
-0.0437927
-0.042572
-0.0418091
-0.0418091
-0.0411987
-0.0413513
-0.0418091
-0.0421143
-0.0427246
-0.0437927
-0.0440979
-0.0448608
-0.0448608
-0.0454712
-0.045929
-0.0457764
-0.045166
-0.0454712
-0.0444031
-0.0434875
-0.0422668
-0.0415039
-0.0404358
-0.0395203
-0.0386047
-0.0375366
-0.0369263
-0.0364685
-0.035553
-0.0349426
-0.0337219
-0.0331116
-0.032196
-0.0311279
-0.0294495
-0.0286865
-0.0270081
-0.0256348
-0.0236511
-0.0221252
-0.0205994
-0.0187683
-0.0167847
-0.0152588
-0.0132751
-0.0114441
-0.0100708
-0.00778198
-0.00579834
-0.00335693
-0.000610352
0.00198364
0.00534058
0.0088501
0.0131226
0.0177002
0.0227356
0.0285339
0.0338745
0.0395203
0.0445557
0.050354
0.055542
0.06073
0.0657654
0.071106
0.0746155
0.0784302
0.0813293
0.0840759
0.085907
0.0868225
0.0874329
0.0872803
0.0865173
0.085907
0.0843811
0.083313
0.0819397
0.0802612
0.078125
0.0765991
0.0749207
0.0735474
0.0718689
0.0709534
0.0708008
0.0712585
0.0718689
0.0737
0.0765991
0.0804138
0.0849915
0.090332
0.0965881
0.103455
0.110321
0.11795
0.12558
0.132904
0.140686
0.147705
0.154724
0.160675
0.166931
0.172119
0.177002
0.181427
0.185547
0.189056
0.192566
0.195007
0.197296
0.199127
0.200653
0.201569
0.202484
0.203247
0.203094
0.202179
0.201416
0.199738
0.197754
0.194702
0.19165
0.188446
0.184326
0.179901
0.175171
0.170593
0.166016
0.160522
0.156097
0.150909
0.145874
0.140991
0.135956
0.130768
0.125275
0.119476
0.113831
0.108032
0.101776
0.0953674
0.0889587
0.0828552
0.0764465
0.0701904
0.0642395
0.0582886
0.0531006
0.0476074
0.042572
0.0384521
0.0338745
0.0300598
0.0263977
0.0233459
0.0205994
0.0180054
0.0158691
0.0146484
0.01297
0.0125122
0.0123596
0.0123596
0.0125122
0.0128174
0.0134277
0.0138855
0.0140381
0.0141907
0.0138855
0.0141907
0.01297
0.0123596
0.0112915
0.00915527
0.00762939
0.00518799
0.00259399
-0.000305176
-0.0038147
-0.00701904
-0.0109863
-0.0140381
-0.0180054
-0.0209045
-0.0231934
-0.0247192
-0.0260925
-0.0263977
-0.0254822
-0.0245667
-0.0230408
-0.0205994
-0.0183105
-0.0146484
-0.0115967
-0.00854492
-0.00518799
-0.00228882
0.000762939
0.00320435
0.00549316
0.00747681
0.00900269
0.010376
0.0115967
0.012207
0.0132751
0.0140381
0.0146484
0.0149536
0.0160217
0.0172424
0.0183105
0.0193787
0.0210571
0.0224304
0.0236511
0.0245667
0.0254822
0.0262451
0.0265503
0.0271606
0.0274658
0.0279236
0.0282288
0.0282288
0.0292969
0.0294495
0.030365
0.0309753
0.0318909
0.0323486
0.0328064
0.0337219
0.0344849
0.0346375
0.0354004
0.035553
0.0357056
0.035553
0.0352478
0.0346375
0.0340271
0.0334167
0.0328064
0.0326538
0.0320435
0.0320435
0.0320435
0.0325012
0.0331116
0.0332642
0.0338745
0.0344849
0.0349426
0.0352478
0.035553
0.0357056
0.0363159
0.0358582
0.035553
0.0352478
0.03479
0.0344849
0.0340271
0.0338745
0.0334167
0.0337219
0.0337219
0.0343323
0.0344849
0.0354004
0.0363159
0.037384
0.038147
0.0393677
0.0396729
0.0401306
0.0413513
0.0421143
0.0430298
0.0436401
0.0448608
0.045166
0.0460815
0.0471497
0.0480652
0.0492859
0.0498962
0.0506592
0.0515747
0.0526428
0.052948
0.0535583
0.0538635
0.0538635
0.0540161
0.0541687
0.0541687
0.0540161
0.0540161
0.0538635
0.0534058
0.0532532
0.0531006
0.0531006
0.052948
0.0527954
0.0532532
0.0538635
0.0541687
0.0556946
0.0566101
0.058136
0.0592041
0.0601196
0.0610352
0.0617981
0.0624084
0.0622559
0.0622559
0.0621033
0.0616455
0.0608826
0.0604248
0.059967
0.0598145
0.0592041
0.0587463
0.0584412
0.0587463
0.0588989
0.0587463
0.0595093
0.0598145
0.0598145
0.059967
0.0602722
0.0596619
0.0598145
0.0595093
0.0587463
0.0578308
0.0572205
0.0564575
0.0558472
0.0550842
0.0544739
0.0540161
0.0543213
0.0543213
0.0540161
0.0544739
0.0550842
0.055542
0.0561523
0.0564575
0.0570679
0.0572205
0.0575256
0.0575256
0.0576782
0.0578308
0.058136
0.058136
0.0582886
0.0585938
0.0588989
0.0595093
0.0601196
0.06073
0.0614929
0.0622559
0.0630188
0.0640869
0.0648499
0.065918
0.0665283
0.0668335
0.0671387
0.0668335
0.0666809
0.0666809
0.0663757
0.065918
0.0657654
0.0654602
0.065155
0.0650024
0.0648499
0.0646973
0.0650024
0.0648499
0.0650024
0.0648499
0.0648499
0.0646973
0.0642395
0.0643921
0.0637817
0.0634766
0.0636292
0.0634766
0.0637817
0.0643921
0.0645447
0.0656128
0.0666809
0.0674438
0.0679016
0.0689697
0.0704956
0.0714111
0.0726318
0.0735474
0.0744629
0.0750732
0.075531
0.0756836
0.0761414
0.0758362
0.0759888
0.0756836
0.0761414
0.0756836
0.075531
0.0759888
0.0765991
0.0772095
0.0778198
0.0787354
0.0796509
0.0804138
0.0813293
0.0819397
0.0827026
0.0830078
0.083313
0.0834656
0.0836182
0.0831604
0.0827026
0.0827026
0.0823975
0.0814819
0.0813293
0.0814819
0.0813293
0.0814819
0.0822449
0.0831604
0.0836182
0.0843811
0.085144
0.0863647
0.0866699
0.0872803
0.0875854
0.087738
0.0874329
0.0874329
0.0871277
0.0866699
0.0863647
0.085907
0.0860596
0.085907
0.0863647
0.0871277
0.0889587
0.0915527
0.0944519
0.0984192
0.103149
0.108948
0.115814
0.122681
0.130005
0.137634
0.144806
0.15152
0.157928
0.162964
0.167389
0.170288
0.172272
0.17334
0.17334
0.171509
0.168915
0.165558
0.161591
0.156708
0.15213
0.146484
0.140991
0.135651
0.13031
0.125122
0.120239
0.116119
0.112305
0.109406
0.107422
0.105896
0.105896
0.106659
0.108185
0.110474
0.113068
0.116425
0.120392
0.123901
0.127716
0.131073
0.13443
0.136261
0.137482
0.137482
0.136414
0.134277
0.131378
0.127411
0.122681
0.117798
0.111847
0.106049
0.0993347
0.092926
0.0856018
0.0787354
0.0712585
0.0639343
0.0564575
0.0489807
0.0411987
0.0341797
0.0265503
0.0196838
0.0131226
0.00686646
0.000915527
-0.00411987
-0.00823975
-0.0114441
-0.0141907
-0.0151062
-0.0157166
-0.0151062
-0.0143433
-0.0123596
-0.0105286
-0.00839233
-0.00595093
-0.00396729
-0.00167847
-0.000152588
0.00152588
0.00259399
0.00335693
0.00366211
0.00350952
0.00396729
0.00396729
0.00366211
0.00335693
0.00320435
0.00350952
0.00366211
0.00366211
0.00396729
0.00427246
0.0050354
0.00564575
0.00640869
0.00747681
0.00808716
0.00946045
0.0102234
0.0109863
0.0114441
0.0112915
0.0115967
0.0115967
0.0119019
0.012207
0.0125122
0.0125122
0.01297
0.0131226
0.0137329
0.0135803
0.0134277
0.0131226
0.01297
0.0123596
0.0117493
0.0109863
0.0102234
0.00930786
0.00762939
0.00656128
0.00534058
0.00350952
0.00167847
0.000457764
-0.000762939
-0.00228882
-0.00274658
-0.00320435
-0.00244141
-0.00152588
0.000152588
0.00274658
0.00640869
0.0105286
0.0163269
0.0241089
0.0328064
0.0430298
0.0561523
0.0715637
0.0894165
0.109863
0.132904
0.158691
0.186462
0.21698
0.249329
0.283813
0.320587
0.359955
0.400696
0.442963
0.486603
0.531311
0.576477
0.621796
0.667267
0.712585
0.75592
0.797577
0.836182
0.870514
0.900116
0.924835
0.94162
0.950928
0.951996
0.943604
0.925598
0.898438
0.861511
0.815582
0.760498
0.697632
0.627136
0.549622
0.466766
0.379333
0.289307
0.197906
0.107117
0.0184631
-0.0663757
-0.145721
-0.218964
-0.284119
-0.339966
-0.386505
-0.423737
-0.450439
-0.467072
-0.474091
-0.471954
-0.461121
-0.442963
-0.418243
-0.388336
-0.355072
-0.319519
-0.283813
-0.247955
-0.214386
-0.183411
-0.155182
-0.130615
-0.110474
-0.0935364
-0.0811768
-0.0724792
-0.0680542
-0.0669861
-0.0694275
-0.0744629
-0.0831604
-0.093689
-0.106201
-0.119629
-0.134125
-0.148315
-0.162048
-0.175171
-0.186005
-0.195312
-0.201569
-0.206299
-0.207672
-0.206757
-0.203094
-0.197296
-0.189056
-0.180054
-0.169373
-0.158386
-0.147247
-0.135956
-0.124817
-0.114899
-0.105591
-0.0965881
-0.0888062
-0.0814819
-0.0758362
-0.0704956
-0.0657654
-0.062561
-0.0596619
-0.0575256
-0.0558472
-0.0546265
-0.0540161
-0.0532532
-0.0526428
-0.0524902
-0.0526428
-0.0531006
-0.0532532
-0.0537109
-0.0537109
-0.0538635
-0.0543213
-0.0544739
-0.0538635
-0.0537109
-0.0527954
-0.0518799
-0.0498962
-0.0485229
-0.0466919
-0.0447083
-0.042572
-0.0402832
-0.038147
-0.0352478
-0.0328064
-0.030365
-0.0279236
-0.0259399
-0.0245667
-0.0228882
-0.0221252
-0.020752
-0.0205994
-0.0204468
-0.0204468
-0.0210571
-0.0210571
-0.0212097
-0.0219727
-0.0222778
-0.0231934
-0.0242615
-0.0250244
-0.0260925
-0.0271606
-0.0283813
-0.0296021
-0.0311279
-0.032196
-0.0332642
-0.0332642
-0.032959
-0.0320435
-0.0302124
-0.0279236
-0.0250244
-0.0213623
-0.0175476
-0.01297
-0.0088501
-0.00442505
0.0
0.00442505
0.0088501
0.0131226
0.0167847
0.0201416
0.0236511
0.025177
0.0263977
0.0273132
0.0271606
0.0260925
0.0239563
0.0215149
0.0186157
0.014801
0.0114441
0.00762939
0.00442505
0.00198364
-0.000457764
-0.00183105
-0.00305176
-0.00396729
-0.00427246
-0.0038147
-0.0038147
-0.00350952
-0.00320435
-0.00244141
-0.00213623
-0.0012207
0.0
0.00137329
0.00289917
0.00442505
0.00701904
0.0088501
0.0111389
0.0134277
0.0152588
0.0177002
0.0195312
0.0212097
0.0227356
0.0239563
0.0250244
0.0263977
0.0268555
0.0280762
0.0289917
0.0296021
0.0309753
0.0325012
0.0346375
0.0366211
0.0386047
0.040741
0.0431824
0.0456238
0.04776
0.0500488
0.0515747
0.0531006
0.0547791
0.0564575
0.058136
0.0598145
0.0622559
0.0648499
0.0675964
0.0706482
0.0741577
0.0782776
0.08255
0.0871277
0.0915527
0.0971985
0.102081
0.10788
0.113068
0.118103
0.122681
0.126495
0.130157
0.133362
0.135651
0.138245
0.139923
0.140991
0.142059
0.14267
0.14328
0.14328
0.144348
0.145111
0.145721
0.147095
0.148468
0.149841
0.151825
0.153961
0.156097
0.158081
0.160065
0.161591
0.163269
0.164337
0.165558
0.165863
0.166168
0.166626
0.166321
0.165558
0.164795
0.164032
0.162964
0.161591
0.160065
0.158386
0.156097
0.153656
0.151062
0.147705
0.143585
0.139313
0.134735
0.129089
0.123749
0.117798
0.111084
0.104828
0.098114
0.0920105
0.0854492
0.0788879
0.0726318
0.0657654
0.0596619
0.0523376
0.0454712
0.0379944
0.0308228
0.0231934
0.0151062
0.00701904
-0.00106812
-0.00930786
-0.017395
-0.0253296
-0.0334167
-0.040741
-0.0476074
-0.0544739
-0.06073
-0.0666809
-0.0721741
-0.0773621
-0.0819397
-0.0865173
-0.0909424
-0.0950623
-0.0993347
-0.103455
-0.107269
-0.111084
-0.115356
-0.118866
-0.122986
-0.126648
-0.129852
-0.132751
-0.135651
-0.137482
-0.138855
-0.139923
-0.140533
-0.140533
-0.140076
-0.139313
-0.138245
-0.136566
-0.13504
-0.133362
-0.131531
-0.129547
-0.128174
-0.126801
-0.12558
-0.124664
-0.123596
-0.123138
-0.122223
-0.12146
-0.12085
-0.120239
-0.119019
-0.118103
-0.117035
-0.115814
-0.114441
-0.112915
-0.111542
-0.110168
-0.108643
-0.106964
-0.104675
-0.103302
-0.101471
-0.0996399
-0.098114
-0.0958252
-0.093689
-0.091095
-0.0889587
-0.0868225
-0.0848389
-0.08255
-0.080719
-0.0785828
-0.0767517
-0.0743103
-0.0717163
-0.0694275
-0.0663757
-0.0636292
-0.06073
-0.0575256
-0.0544739
-0.0512695
-0.0482178
-0.0456238
-0.0431824
-0.0404358
-0.0378418
-0.0346375
-0.0314331
-0.0276184
-0.0234985
-0.0190735
-0.0143433
-0.0105286
-0.00686646
-0.00366211
-0.00198364
-0.0012207
-0.00183105
-0.00411987
-0.00793457
-0.0131226
-0.0190735
-0.025177
-0.032959
-0.040741
-0.0485229
-0.0566101
-0.0645447
-0.0720215
-0.0798035
-0.0871277
-0.0938416
-0.0999451
-0.105438
-0.109711
-0.11322
-0.115356
-0.115814
-0.115509
-0.113525
-0.109863
-0.105286
-0.0994873
-0.0927734
-0.0852966
-0.0772095
-0.0691223
-0.06073
-0.0524902
-0.0447083
-0.0378418
-0.0312805
-0.0262451
-0.0213623
-0.0180054
-0.0152588
-0.0138855
-0.0128174
-0.01297
-0.0141907
-0.0154114
-0.0167847
-0.0193787
-0.0213623
-0.0233459
-0.025177
-0.0273132
-0.0283813
-0.0292969
-0.030365
-0.0300598
-0.0299072
-0.0288391
-0.0274658
-0.0257874
-0.0238037
-0.0213623
-0.0184631
-0.0149536
-0.0117493
-0.00732422
-0.00289917
0.00106812
0.00518799
0.0088501
0.0125122
0.0157166
0.0180054
0.0198364
0.020752
0.0210571
0.0205994
0.0189209
0.0163269
0.0126648
0.00930786
0.00396729
-0.00106812
-0.00701904
-0.01297
-0.0192261
-0.0254822
-0.0312805
-0.0370789
-0.0411987
-0.045166
-0.0486755
-0.0505066
-0.0520325
-0.0517273
-0.0511169
-0.0492859
-0.0471497
-0.0437927
-0.0398254
-0.0360107
-0.0312805
-0.0267029
-0.0222778
-0.0177002
-0.0134277
-0.00961304
-0.00595093
-0.00274658
0.000152588
0.00244141
0.00488281
0.00656128
0.00823975
0.00976562
0.0109863
0.0112915
0.0111389
0.0109863
0.0105286
0.00976562
0.00808716
0.00686646
0.00488281
0.00228882
-0.000152588
-0.00259399
-0.00534058
-0.00839233
-0.0102234
-0.0125122
-0.0146484
-0.0164795
-0.0180054
-0.0193787
-0.0204468
-0.0215149
-0.0224304
-0.0230408
-0.0236511
-0.0236511
-0.0247192
-0.025177
-0.0253296
-0.0260925
-0.0259399
-0.0260925
-0.0256348
-0.0248718
-0.0242615
-0.0230408
-0.0219727
-0.019989
-0.0180054
-0.0158691
-0.01297
-0.00976562
-0.0062561
-0.00228882
0.00152588
0.00549316
0.00915527
0.0128174
0.0157166
0.0175476
0.0198364
0.0209045
0.0216675
0.0224304
0.0222778
0.0221252
0.0216675
0.020752
0.0190735
0.0172424
0.0146484
0.0112915
0.00762939
0.0038147
-0.000610352
-0.00534058
-0.0102234
-0.0151062
-0.0196838
-0.0239563
-0.0282288
-0.0312805
-0.0335693
-0.0354004
-0.0360107
-0.0357056
-0.0335693
-0.0318909
-0.0289917
-0.025177
-0.0216675
-0.0172424
-0.01297
-0.00793457
-0.00411987
-0.000152588
0.00289917
0.00595093
0.00854492
0.0105286
0.0111389
0.0117493
0.0115967
0.0105286
0.00900269
0.00717163
0.00488281
0.00228882
-0.000152588
-0.00289917
-0.00564575
-0.00808716
-0.0106812
-0.0131226
-0.0152588
-0.0170898
-0.0189209
-0.0202942
-0.0213623
-0.0222778
-0.0227356
-0.0228882
-0.0224304
-0.0213623
-0.0202942
-0.0184631
-0.0164795
-0.0143433
-0.0119019
-0.00946045
-0.00732422
-0.00534058
-0.00350952
-0.00183105
-0.0012207
-0.000305176
0.000152588
0.0
-0.000305176
-0.000152588
-0.000762939
-0.000762939
-0.000915527
-0.00137329
-0.0012207
-0.0012207
-0.00106812
-0.000457764
0.0
0.000762939
0.00152588
0.00289917
0.00366211
0.00488281
0.00518799
0.00518799
0.00442505
0.00320435
0.00167847
-0.000305176
-0.00305176
-0.00579834
-0.00869751
-0.0112915
-0.0141907
-0.0166321
-0.0192261
-0.0215149
-0.0234985
-0.0253296
-0.0267029
-0.0274658
-0.0283813
-0.0285339
-0.0286865
-0.0280762
-0.0270081
-0.0257874
-0.0241089
-0.0222778
-0.0202942
-0.0172424
-0.0146484
-0.0111389
-0.00762939
-0.00366211
0.000610352
0.00518799
0.00991821
0.0149536
0.0193787
0.0242615
0.0289917
0.0338745
0.0376892
0.0418091
0.0453186
0.0485229
0.0512695
0.0538635
0.055542
0.0576782
0.0587463
0.0595093
0.0602722
0.06073
0.0608826
0.0605774
0.0608826
0.0608826
0.06073
0.0613403
0.0616455
0.0622559
0.0627136
0.0634766
0.0639343
0.0650024
0.0660706
0.0668335
0.068512
0.0698853
0.0726318
0.0758362
0.0793457
0.0830078
0.0871277
0.0906372
0.0938416
0.0970459
0.0997925
0.101624
0.103302
0.103607
0.103149
0.101776
0.0991821
0.09552
0.0909424
0.0848389
0.0779724
0.070343
0.0622559
0.0532532
0.0440979
0.03479
0.025177
0.0160217
0.00656128
-0.00244141
-0.0106812
-0.0189209
-0.0267029
-0.0338745
-0.0402832
-0.0465393
-0.0523376
-0.0567627
-0.0605774
-0.0642395
-0.0668335
-0.0689697
-0.0706482
-0.0718689
-0.0727844
-0.0732422
-0.0733948
-0.0740051
-0.0743103
-0.0740051
-0.0741577
-0.0738525
-0.0741577
-0.0743103
-0.0744629
-0.0749207
-0.0753784
-0.0762939
-0.0773621
-0.0778198
-0.0785828
-0.0796509
-0.0799561
-0.0802612
-0.0802612
-0.0804138
-0.0802612
-0.0802612
-0.0794983
-0.0793457
-0.0784302
-0.0778198
-0.0769043
-0.0761414
-0.0756836
-0.0749207
-0.0747681
-0.0746155
-0.0746155
-0.0747681
-0.0747681
-0.0743103
-0.0746155
-0.0740051
-0.0737
-0.0726318
-0.0712585
-0.0697327
-0.0675964
-0.0653076
-0.0628662
-0.0605774
-0.0584412
-0.0566101
-0.0550842
-0.0532532
-0.0524902
-0.0523376
-0.0523376
-0.0532532
-0.0544739
-0.0566101
-0.0584412
-0.0602722
-0.0624084
-0.0642395
-0.0656128
-0.0663757
-0.0668335
-0.0653076
-0.063324
-0.0595093
-0.0544739
-0.0469971
-0.0375366
-0.0262451
-0.0117493
0.00427246
0.0238037
0.0445557
0.0689697
0.0949097
0.123138
0.153198
0.186005
0.220642
0.2565
0.295258
0.335388
0.377502
0.42099
0.464935
0.509796
0.555267
0.601044
0.645905
0.68924
0.730743
0.768585
0.803375
0.832672
0.856781
0.874023
0.883331
0.883942
0.875397
0.857391
0.829773
0.792847
0.74646
0.691223
0.627594
0.555878
0.47821
0.394135
0.306549
0.215149
0.123444
0.0323486
-0.0569153
-0.14267
-0.222626
-0.295563
-0.361023
-0.41687
-0.463562
-0.499878
-0.526428
-0.54306
-0.55069
-0.549164
-0.540466
-0.52475
-0.50415
-0.479126
-0.450287
-0.419312
-0.388184
-0.356445
-0.325928
-0.296021
-0.268097
-0.243073
-0.219727
-0.19928
-0.182037
-0.167847
-0.15564
-0.146484
-0.139618
-0.134125
-0.13031
-0.128174
-0.127258
-0.127716
-0.128937
-0.13031
-0.132446
-0.134277
-0.136108
-0.138092
-0.139771
-0.140991
-0.141754
-0.14267
-0.143127
-0.142822
-0.142517
-0.142059
-0.140991
-0.139313
-0.137787
-0.135651
-0.133972
-0.132446
-0.13092
-0.128937
-0.128326
-0.127411
-0.126801
-0.126495
-0.126038
-0.12558
-0.125427
-0.124512
-0.123596
-0.122986
-0.121613
-0.120087
-0.118103
-0.115509
-0.112915
-0.109253
-0.106201
-0.102539
-0.0987244
-0.0952148
-0.0920105
-0.0886536
-0.0857544
-0.0827026
-0.0802612
-0.0779724
-0.0756836
-0.0733948
-0.0709534
-0.0691223
-0.0668335
-0.0648499
-0.0627136
-0.0616455
-0.0601196
-0.0590515
-0.0584412
-0.0582886
-0.0582886
-0.0587463
-0.059967
-0.06073
-0.0619507
-0.0634766
-0.0650024
-0.065918
-0.0672913
-0.0686646
-0.0700378
-0.0706482
-0.0718689
-0.0720215
-0.0724792
-0.0724792
-0.0721741
-0.0721741
-0.0720215
-0.0720215
-0.0715637
-0.0714111
-0.0708008
-0.0697327
-0.0689697
-0.0680542
-0.0669861
-0.065918
-0.0646973
-0.063324
-0.0617981
-0.0598145
-0.0575256
-0.0553894
-0.0532532
-0.0506592
-0.0480652
-0.0454712
-0.0427246
-0.0398254
-0.0376892
-0.0352478
-0.0326538
-0.0308228
-0.0292969
-0.0273132
-0.0254822
-0.0242615
-0.0219727
-0.019989
-0.0172424
-0.0146484
-0.012207
-0.00930786
-0.00640869
-0.00366211
-0.00137329
0.000457764
0.00198364
0.00320435
0.00411987
0.00457764
0.00488281
0.00457764
0.0050354
0.0050354
0.00518799
0.00549316
0.0062561
0.00686646
0.00823975
0.00930786
0.0105286
0.0126648
0.0143433
0.0167847
0.0201416
0.0234985
0.0267029
0.0305176
0.0341797
0.0375366
0.0404358
0.0428772
0.0462341
0.0491333
0.0515747
0.0541687
0.0563049
0.0588989
0.0610352
0.0637817
0.0668335
0.0691223
0.0718689
0.0746155
0.0775146
0.0794983
0.0816345
0.0836182
0.0854492
0.0871277
0.088501
0.0894165
0.0906372
0.0914001
0.0921631
0.0938416
0.0949097
0.0964355
0.0979614
0.0994873
0.101318
0.103455
0.105743
0.108185
0.111084
0.113525
0.117035
0.120239
0.123138
0.126648
0.129852
0.133057
0.136261
0.139618
0.142365
0.145264
0.14801
0.150299
0.151825
0.153961
0.155182
0.156097
0.15686
0.157776
0.158386
0.158234
0.158386
0.158386
0.157928
0.157928
0.157013
0.156708
0.156097
0.155792
0.155945
0.155792
0.15686
0.157471
0.158844
0.159454
0.160217
0.161133
0.160675
0.160065
0.158691
0.156555
0.153351
0.148926
0.143433
0.137024
0.1297
0.120697
0.111237
0.101166
0.0901794
0.0788879
0.0674438
0.0553894
0.0444031
0.0334167
0.022583
0.0125122
0.00320435
-0.00488281
-0.0126648
-0.0193787
-0.0250244
-0.0302124
-0.0341797
-0.038147
-0.0410461
-0.0437927
-0.045929
-0.04776
-0.0500488
-0.0517273
-0.0535583
-0.0553894
-0.0572205
-0.0592041
-0.0613403
-0.0634766
-0.0660706
-0.0682068
-0.0712585
-0.0746155
-0.0778198
-0.0814819
-0.0849915
-0.0888062
-0.0924683
-0.0964355
-0.0999451
-0.102997
-0.106201
-0.108948
-0.111389
-0.113678
-0.115356
-0.116119
-0.117035
-0.117188
-0.117645
-0.117188
-0.117188
-0.11673
-0.116577
-0.116577
-0.116577
-0.117035
-0.117798
-0.118866
-0.119934
-0.121155
-0.122375
-0.123291
-0.123596
-0.124054
-0.123596
-0.123444
-0.122681
-0.121613
-0.120392
-0.118713
-0.11673
-0.114746
-0.112915
-0.110474
-0.1091
-0.107727
-0.106049
-0.10498
-0.104218
-0.103607
-0.10376
-0.103607
-0.10376
-0.103607
-0.104218
-0.104523
-0.10498
-0.104523
-0.104675
-0.10498
-0.104065
-0.103607
-0.102844
-0.101471
-0.100861
-0.0996399
-0.0982666
-0.0967407
-0.0944519
-0.0930786
-0.0900269
-0.0872803
-0.0839233
-0.0801086
-0.0773621
-0.0737
-0.0708008
-0.0674438
-0.0654602
-0.062561
-0.06073
-0.0590515
-0.058136
-0.0576782
-0.058136
-0.058136
-0.0596619
-0.0611877
-0.0628662
-0.0645447
-0.0663757
-0.0682068
-0.0695801
-0.0704956
-0.0712585
-0.0718689
-0.0720215
-0.0717163
-0.0709534
-0.0700378
-0.0686646
-0.0671387
-0.0650024
-0.0630188
-0.06073
-0.0592041
-0.0570679
-0.0550842
-0.0537109
-0.0518799
-0.050354
-0.0488281
-0.0473022
-0.0457764
-0.0442505
-0.042572
-0.0404358
-0.0384521
-0.0364685
-0.0343323
-0.0325012
-0.0312805
-0.030365
-0.0291443
-0.0291443
-0.0297546
-0.0306702
-0.0311279
-0.0323486
-0.0341797
-0.0358582
-0.0369263
-0.0379944
-0.0396729
-0.0413513
-0.0428772
-0.045166
-0.0469971
-0.0491333
-0.0511169
-0.0534058
-0.0549316
-0.0567627
-0.0585938
-0.059967
-0.0613403
-0.0621033
-0.0627136
-0.0630188
-0.0630188
-0.0624084
-0.0616455
-0.0605774
-0.0587463
-0.0572205
-0.0553894
-0.0532532
-0.0508118
-0.0486755
-0.0460815
-0.0436401
-0.0415039
-0.0395203
-0.0382996
-0.0366211
-0.0358582
-0.035553
-0.0360107
-0.0366211
-0.0379944
-0.0393677
-0.0410461
-0.0437927
-0.0454712
-0.04776
-0.0495911
-0.0511169
-0.0524902
-0.0531006
-0.0537109
-0.0537109
-0.0535583
-0.0531006
-0.0524902
-0.0517273
-0.0502014
-0.0479126
-0.0460815
-0.0430298
-0.0401306
-0.0364685
-0.032959
-0.0286865
-0.0247192
-0.0205994
-0.0163269
-0.0120544
-0.00778198
-0.00411987
-0.00106812
0.0012207
0.00274658
0.00305176
0.00320435
0.00167847
0.000152588
-0.00274658
-0.00656128
-0.0112915
-0.0158691
-0.0218201
-0.0279236
-0.0343323
-0.0408936
-0.0469971
-0.0534058
-0.0587463
-0.0637817
-0.0680542
-0.071106
-0.0737
-0.0749207
-0.0756836
-0.0750732
-0.0740051
-0.0720215
-0.0700378
-0.0668335
-0.0640869
-0.0614929
-0.0584412
-0.0553894
-0.0524902
-0.0486755
-0.0456238
-0.0424194
-0.0395203
-0.0366211
-0.0334167
-0.0314331
-0.0297546
-0.0288391
-0.0282288
-0.0280762
-0.0283813
-0.0289917
-0.0297546
-0.0312805
-0.0323486
-0.0340271
-0.0349426
-0.0364685
-0.0375366
-0.0387573
-0.0395203
-0.0398254
-0.0402832
-0.0398254
-0.039978
-0.0392151
-0.0390625
-0.0379944
-0.0370789
-0.0361633
-0.0352478
-0.0335693
-0.0323486
-0.0299072
-0.027771
-0.025177
-0.0221252
-0.0186157
-0.0151062
-0.0114441
-0.00808716
-0.0038147
0.000152588
0.00305176
0.00610352
0.00823975
0.00976562
0.0102234
0.0100708
0.00915527
0.00732422
0.00411987
0.000305176
-0.00411987
-0.00961304
-0.0154114
-0.0210571
-0.0276184
-0.0337219
-0.039978
-0.0456238
-0.0508118
-0.0558472
-0.0601196
-0.0627136
-0.065155
-0.0666809
-0.0672913
-0.0671387
-0.0662231
-0.0648499
-0.0627136
-0.0608826
-0.0584412
-0.0556946
-0.052948
-0.0502014
-0.0474548
-0.0447083
-0.0418091
-0.0396729
-0.0370789
-0.0349426
-0.0332642
-0.0314331
-0.0305176
-0.0288391
-0.0283813
-0.0279236
-0.0274658
-0.0279236
-0.0276184
-0.027771
-0.0285339
-0.0289917
-0.0300598
-0.0312805
-0.032196
-0.0331116
-0.0338745
-0.0346375
-0.0354004
-0.0357056
-0.0354004
-0.03479
-0.0340271
-0.0331116
-0.0317383
-0.0309753
-0.0297546
-0.0294495
-0.0291443
-0.0286865
-0.0285339
-0.0280762
-0.0276184
-0.0271606
-0.0273132
-0.0263977
-0.0263977
-0.0260925
-0.0256348
-0.0259399
-0.0256348
-0.0257874
-0.0260925
-0.0260925
-0.0262451
-0.0267029
-0.0263977
-0.0274658
-0.0283813
-0.0296021
-0.0308228
-0.0325012
-0.0335693
-0.0352478
-0.0364685
-0.0372314
-0.0378418
-0.0376892
-0.0375366
-0.0366211
-0.0361633
-0.0349426
-0.0337219
-0.0332642
-0.0326538
-0.0323486
-0.0318909
-0.0320435
-0.0320435
-0.0323486
-0.0325012
-0.0328064
-0.0331116
-0.0332642
-0.0335693
-0.0334167
-0.0331116
-0.0325012
-0.0320435
-0.0311279
-0.0300598
-0.0288391
-0.0271606
-0.0262451
-0.0250244
-0.0236511
-0.0224304
-0.0210571
-0.0202942
-0.0190735
-0.0183105
-0.0183105
-0.018158
-0.0186157
-0.0198364
-0.0205994
-0.0218201
-0.0231934
-0.0244141
-0.0257874
-0.0274658
-0.0283813
-0.0294495
-0.0305176
-0.0309753
-0.0320435
-0.0325012
-0.0334167
-0.0334167
-0.0337219
-0.0337219
-0.0334167
-0.0320435
-0.030365
-0.0280762
-0.0250244
-0.0215149
-0.0175476
-0.0125122
-0.00793457
-0.00244141
0.00335693
0.00930786
0.0154114
0.0212097
0.0268555
0.0312805
0.0358582
0.0392151
0.0415039
0.0434875
0.0448608
0.0457764
0.0453186
0.0445557
0.0437927
0.0416565
0.0395203
0.0372314
0.0344849
0.0320435
0.0289917
0.0270081
0.0247192
0.0233459
0.0213623
0.0205994
0.0201416
0.0198364
0.020752
0.0221252
0.0239563
0.0267029
0.030365
0.0349426
0.0398254
0.0450134
0.0508118
0.0570679
0.0630188
0.0688171
0.0733948
0.0770569
0.0798035
0.0808716
0.0810242
0.0788879
0.0758362
0.071106
0.0645447
0.0576782
0.0488281
0.0396729
0.0299072
0.0190735
0.00823975
-0.00274658
-0.0132751
-0.0233459
-0.0326538
-0.040741
-0.0479126
-0.0541687
-0.0596619
-0.0637817
-0.0672913
-0.0694275
-0.0715637
-0.072937
-0.0744629
-0.0753784
-0.0762939
-0.0770569
-0.0772095
-0.0773621
-0.0776672
-0.0776672
-0.0785828
-0.0788879
-0.0798035
-0.080719
-0.0817871
-0.0830078
-0.0840759
-0.0848389
-0.0852966
-0.0856018
-0.085907
-0.085144
-0.0846863
-0.0834656
-0.0816345
-0.0796509
-0.0778198
-0.075531
-0.0738525
-0.0720215
-0.0701904
-0.068512
-0.0672913
-0.0662231
-0.0653076
-0.0648499
-0.0643921
-0.0645447
-0.0650024
-0.0662231
-0.0674438
-0.0689697
-0.0712585
-0.0735474
-0.0753784
-0.0770569
-0.0785828
-0.0798035
-0.0802612
-0.0804138
-0.0801086
-0.0791931
-0.0782776
-0.0765991
-0.0746155
-0.0727844
-0.0706482
-0.0689697
-0.067749
-0.0669861
-0.0666809
-0.0674438
-0.0691223
-0.070343
-0.0726318
-0.0750732
-0.0770569
-0.0784302
-0.0794983
-0.0801086
-0.0798035
-0.0787354
-0.0761414
-0.0715637
-0.0654602
-0.0572205
-0.0463867
-0.032959
-0.0169373
0.00228882
0.0245667
0.0485229
0.0761414
0.106659
0.139465
0.174408
0.211487
0.251465
0.292816
0.336304
0.381317
0.427551
0.474548
0.522003
0.569916
0.617828
0.66452
0.709076
0.75119
0.790558
0.82428
0.853119
0.874634
0.888824
0.894928
0.891571
0.878601
0.856018
0.823669
0.782166
0.731812
0.673218
0.606537
0.53299
0.452576
0.367432
0.278168
0.187225
0.0950623
0.00366211
-0.0842285
-0.168762
-0.246887
-0.317993
-0.381165
-0.435333
-0.480042
-0.514832
-0.539856
-0.555115
-0.561371
-0.559235
-0.549622
-0.532837
-0.511017
-0.485077
-0.455627
-0.425262
-0.394592
-0.363312
-0.334167
-0.306244
-0.281219
-0.259399
-0.240173
-0.223694
-0.210419
-0.199585
-0.191498
-0.185242
-0.181122
-0.17807
-0.176392
-0.175476
-0.174713
-0.174866
-0.174866
-0.174561
-0.174408
-0.174255
-0.173492
-0.172577
-0.170898
-0.169067
-0.166779
-0.164337
-0.161285
-0.157623
-0.154419
-0.150604
-0.14679
-0.143127
-0.139618
-0.135803
-0.132294
-0.128937
-0.125885
-0.123901
-0.121155
-0.119476
-0.117798
-0.117188
-0.116577
-0.115967
-0.115814
-0.115204
-0.115356
-0.115051
-0.114746
-0.114594
-0.113373
-0.112457
-0.110626
-0.109253
-0.106812
-0.105438
-0.102844
-0.100403
-0.0987244
-0.096283
-0.0946045
-0.0926208
-0.0914001
-0.0897217
-0.0881958
-0.0874329
-0.0863647
-0.085907
-0.085144
-0.0843811
-0.0842285
-0.0837708
-0.0828552
-0.0819397
-0.0816345
-0.0804138
-0.0801086
-0.0796509
-0.0790405
-0.0785828
-0.078125
-0.0782776
-0.0779724
-0.0784302
-0.0787354
-0.0787354
-0.0790405
-0.0793457
-0.0785828
-0.0788879
-0.0788879
-0.0784302
-0.0779724
-0.0775146
-0.0775146
-0.0770569
-0.0765991
-0.0759888
-0.0753784
-0.0752258
-0.0746155
-0.0740051
-0.0738525
-0.072937
-0.0720215
-0.0715637
-0.070343
-0.0692749
-0.0682068
-0.0666809
-0.0650024
-0.0627136
-0.06073
-0.0576782
-0.0553894
-0.0527954
-0.0494385
-0.0473022
-0.0445557
-0.0424194
-0.0405884
-0.0387573
-0.037384
-0.0363159
-0.0352478
-0.03479
-0.0341797
-0.0341797
-0.0337219
-0.0335693
-0.0331116
-0.0323486
-0.0315857
-0.0308228
-0.0299072
-0.0286865
-0.0273132
-0.0257874
-0.0245667
-0.0234985
-0.022583
-0.0212097
-0.019989
-0.0187683
-0.0172424
-0.0158691
-0.0141907
-0.0123596
-0.00991821
-0.00762939
-0.0050354
-0.00244141
0.000305176
0.00335693
0.00656128
0.00991821
0.01297
0.0161743
0.0193787
0.0213623
0.0238037
0.0259399
0.0280762
0.0302124
0.032196
0.0343323
0.0363159
0.0382996
0.0404358
0.0427246
0.0453186
0.0480652
0.0509644
0.0538635
0.0572205
0.0605774
0.0637817
0.0671387
0.0704956
0.0732422
0.0759888
0.0793457
0.0822449
0.0848389
0.0878906
0.0906372
0.0932312
0.096283
0.0993347
0.102386
0.105743
0.108948
0.11261
0.116272
0.119781
0.123444
0.127258
0.13031
0.133514
0.136108
0.13855
0.140686
0.142517
0.14389
0.145264
0.146637
0.147247
0.148315
0.149078
0.149994
0.150757
0.151672
0.152893
0.153809
0.154572
0.155334
0.156403
0.157013
0.157166
0.157471
0.157318
0.157166
0.156403
0.155792
0.154266
0.152588
0.151062
0.149078
0.14679
0.144196
0.141602
0.138397
0.135193
0.131378
0.127411
0.122833
0.118408
0.11322
0.10788
0.101776
0.0953674
0.0881958
0.0808716
0.0738525
0.0660706
0.0584412
0.0508118
0.0431824
0.0361633
0.0282288
0.0210571
0.0140381
0.00656128
-0.000152588
-0.00671387
-0.0131226
-0.0195312
-0.0259399
-0.032196
-0.0382996
-0.0445557
-0.0505066
-0.0570679
-0.0628662
-0.0688171
-0.0747681
-0.0802612
-0.0849915
-0.0900269
-0.0947571
-0.0987244
-0.102539
-0.106049
-0.109558
-0.112305
-0.115051
-0.116882
-0.119476
-0.121155
-0.122833
-0.124664
-0.12619
-0.128174
-0.130157
-0.131989
-0.133514
-0.135193
-0.136566
-0.137634
-0.138245
-0.139313
-0.139008
-0.139313
-0.13855
-0.138092
-0.137482
-0.136566
-0.135956
-0.134583
-0.133972
-0.133057
-0.132141
-0.131531
-0.130768
-0.13031
-0.129852
-0.129242
-0.128937
-0.128632
-0.128326
-0.127716
-0.126495
-0.125732
-0.125122
-0.124054
-0.123138
-0.12207
-0.12146
-0.12085
-0.120239
-0.119934
-0.119781
-0.119629
-0.119781
-0.119934
-0.120392
-0.120239
-0.120544
-0.120697
-0.12085
-0.121155
-0.121002
-0.120392
-0.120544
-0.119781
-0.119171
-0.118256
-0.117188
-0.11673
-0.115509
-0.115356
-0.114441
-0.114441
-0.113831
-0.113678
-0.112762
-0.112305
-0.110931
-0.109711
-0.108337
-0.106506
-0.105286
-0.103455
-0.101929
-0.0999451
-0.0984192
-0.0970459
-0.0965881
-0.0958252
-0.09552
-0.0953674
-0.0956726
-0.0961304
-0.0965881
-0.0971985
-0.0967407
-0.0968933
-0.0964355
-0.096283
-0.09552
-0.0946045
-0.0933838
-0.0918579
-0.0901794
-0.088501
-0.0863647
-0.0845337
-0.0823975
-0.0808716
-0.0791931
-0.0775146
-0.0767517
-0.0762939
-0.0758362
-0.0759888
-0.0762939
-0.0772095
-0.0773621
-0.0784302
-0.0791931
-0.0796509
-0.0802612
-0.0799561
-0.0801086
-0.0802612
-0.0801086
-0.0798035
-0.0798035
-0.0793457
-0.0791931
-0.0784302
-0.0784302
-0.0779724
-0.0776672
-0.0775146
-0.0767517
-0.0761414
-0.0756836
-0.0747681
-0.0740051
-0.0726318
-0.0717163
-0.0700378
-0.0683594
-0.0672913
-0.0662231
-0.0654602
-0.0640869
-0.0631714
-0.0624084
-0.0622559
-0.0619507
-0.0619507
-0.0622559
-0.0627136
-0.0631714
-0.0634766
-0.0642395
-0.0648499
-0.0656128
-0.0663757
-0.0669861
-0.0671387
-0.0675964
-0.0682068
-0.0688171
-0.0691223
-0.0697327
-0.0708008
-0.071106
-0.0724792
-0.0738525
-0.0747681
-0.0758362
-0.0773621
-0.0782776
-0.0790405
-0.0801086
-0.080719
-0.0814819
-0.0816345
-0.0816345
-0.0811768
-0.080719
-0.0802612
-0.0793457
-0.0784302
-0.0775146
-0.0764465
-0.0752258
-0.0746155
-0.0738525
-0.0730896
-0.0726318
-0.0723267
-0.0721741
-0.0717163
-0.0715637
-0.0712585
-0.0709534
-0.0706482
-0.0701904
-0.0697327
-0.0694275
-0.0691223
-0.0689697
-0.0686646
-0.0688171
-0.0692749
-0.0698853
-0.0706482
-0.0714111
-0.0721741
-0.0726318
-0.0735474
-0.0741577
-0.0741577
-0.0746155
-0.0746155
-0.0740051
-0.0735474
-0.0724792
-0.0712585
-0.0697327
-0.0688171
-0.0669861
-0.0662231
-0.0645447
-0.063324
-0.0624084
-0.0614929
-0.0611877
-0.0610352
-0.06073
-0.0610352
-0.0614929
-0.0616455
-0.0616455
-0.0617981
-0.0619507
-0.0619507
-0.0622559
-0.0616455
-0.0611877
-0.0608826
-0.0605774
-0.059967
-0.0593567
-0.0584412
-0.0578308
-0.0576782
-0.0570679
-0.0566101
-0.0561523
-0.0553894
-0.0546265
-0.0544739
-0.0541687
-0.0535583
-0.0532532
-0.0526428
-0.0521851
-0.0518799
-0.0509644
-0.050354
-0.0495911
-0.0497437
-0.0494385
-0.0491333
-0.0494385
-0.0495911
-0.0498962
-0.0506592
-0.0517273
-0.0526428
-0.0538635
-0.0544739
-0.0552368
-0.0558472
-0.0561523
-0.0563049
-0.0558472
-0.0558472
-0.0552368
-0.0541687
-0.0532532
-0.0524902
-0.0509644
-0.050354
-0.0489807
-0.0483704
-0.0482178
-0.0474548
-0.0474548
-0.0471497
-0.0476074
-0.0473022
-0.0473022
-0.0471497
-0.0473022
-0.0471497
-0.0465393
-0.0460815
-0.0450134
-0.0440979
-0.0439453
-0.043335
-0.0430298
-0.0427246
-0.0430298
-0.0431824
-0.0434875
-0.0442505
-0.0442505
-0.0450134
-0.0447083
-0.0450134
-0.0445557
-0.0440979
-0.0437927
-0.0434875
-0.0424194
-0.0421143
-0.0413513
-0.0411987
-0.0408936
-0.0398254
-0.0393677
-0.0389099
-0.0389099
-0.0389099
-0.0392151
-0.0396729
-0.0402832
-0.0408936
-0.0421143
-0.0428772
-0.0437927
-0.0445557
-0.0454712
-0.0465393
-0.0468445
-0.0468445
-0.0463867
-0.0460815
-0.0457764
-0.0450134
-0.0453186
-0.0447083
-0.0445557
-0.0442505
-0.0442505
-0.0439453
-0.043335
-0.0431824
-0.0422668
-0.0421143
-0.0408936
-0.0398254
-0.0389099
-0.0376892
-0.0363159
-0.0350952
-0.0334167
-0.0317383
-0.0296021
-0.027771
-0.0256348
-0.0233459
-0.0210571
-0.0193787
-0.0177002
-0.0158691
-0.0146484
-0.0132751
-0.0120544
-0.0109863
-0.00976562
-0.00854492
-0.00778198
-0.0062561
-0.00549316
-0.0038147
-0.00320435
-0.00213623
-0.000915527
0.000152588
0.000762939
0.00106812
0.00152588
0.00106812
0.000915527
0.000762939
0.0
0.0
-0.000152588
0.0
0.000457764
0.00152588
0.00320435
0.00427246
0.00686646
0.00930786
0.012207
0.014801
0.0177002
0.0202942
0.022583
0.0250244
0.0267029
0.0285339
0.0297546
0.030365
0.0309753
0.0306702
0.0305176
0.0299072
0.0286865
0.0270081
0.0250244
0.0219727
0.0190735
0.0154114
0.0117493
0.00793457
0.00335693
-0.00106812
-0.00610352
-0.0112915
-0.0170898
-0.0224304
-0.0279236
-0.0334167
-0.0389099
-0.0444031
-0.0500488
-0.0553894
-0.0602722
-0.0653076
-0.0698853
-0.0740051
-0.0775146
-0.0811768
-0.0842285
-0.0869751
-0.0895691
-0.0918579
-0.0942993
-0.0961304
-0.0982666
-0.100708
-0.103149
-0.105133
-0.106964
-0.109253
-0.111237
-0.112915
-0.113983
-0.114441
-0.114899
-0.114746
-0.114288
-0.113678
-0.112762
-0.111389
-0.110016
-0.108337
-0.106964
-0.105286
-0.104523
-0.103302
-0.102234
-0.101776
-0.100708
-0.100555
-0.100555
-0.100403
-0.100555
-0.100555
-0.100708
-0.100708
-0.100555
-0.100861
-0.0997925
-0.0996399
-0.0990295
-0.098114
-0.0973511
-0.0967407
-0.0956726
-0.0949097
-0.0941467
-0.0935364
-0.0923157
-0.0921631
-0.0914001
-0.091095
-0.0898743
-0.0897217
-0.0889587
-0.088501
-0.0878906
-0.087738
-0.0872803
-0.0872803
-0.0872803
-0.0872803
-0.0875854
-0.0880432
-0.087738
-0.0874329
-0.0869751
-0.085907
-0.0843811
-0.0817871
-0.0775146
-0.0718689
-0.0642395
-0.0546265
-0.0419617
-0.0271606
-0.0088501
0.012207
0.0358582
0.0624084
0.091095
0.123138
0.156403
0.192566
0.230103
0.269928
0.311584
0.354309
0.398102
0.443268
0.489349
0.535736
0.582123
0.627136
0.670471
0.711517
0.749512
0.783081
0.811615
0.833282
0.848389
0.855255
0.853119
0.841217
0.820312
0.789185
0.749207
0.700073
0.643463
0.578003
0.506897
0.42923
0.347137
0.261383
0.174103
0.0863647
-0.000305176
-0.0849915
-0.165558
-0.241241
-0.309753
-0.371399
-0.424194
-0.467987
-0.502777
-0.528717
-0.545807
-0.55481
-0.556183
-0.55069
-0.53894
-0.522461
-0.501862
-0.4776
-0.451813
-0.424347
-0.396271
-0.3685
-0.341797
-0.31662
-0.292206
-0.270691
-0.251312
-0.234375
-0.219269
-0.207062
-0.196991
-0.188446
-0.18219
-0.177002
-0.173492
-0.170746
-0.168915
-0.167236
-0.166016
-0.1651
-0.164642
-0.163727
-0.162964
-0.162811
-0.161896
-0.16098
-0.160065
-0.159149
-0.158081
-0.156708
-0.155487
-0.154572
-0.153046
-0.15213
-0.151062
-0.149384
-0.147858
-0.145721
-0.144348
-0.142365
-0.140381
-0.138397
-0.136414
-0.133972
-0.132294
-0.130768
-0.129089
-0.127563
-0.126495
-0.12558
-0.125122
-0.124664
-0.124817
-0.124664
-0.124969
-0.124512
-0.123901
-0.123749
-0.123138
-0.12207
-0.121002
-0.119781
-0.118103
-0.11673
-0.114746
-0.112915
-0.111389
-0.109711
-0.108643
-0.107269
-0.106964
-0.105896
-0.105438
-0.10498
-0.10437
-0.103302
-0.103149
-0.102386
-0.101624
-0.101166
-0.100555
-0.100098
-0.0994873
-0.0987244
-0.0979614
-0.0970459
-0.096283
-0.09552
-0.0949097
-0.0942993
-0.0941467
-0.093689
-0.0938416
-0.0944519
-0.0944519
-0.0946045
-0.0947571
-0.0949097
-0.0946045
-0.0942993
-0.0935364
-0.0926208
-0.0920105
-0.0912476
-0.090332
-0.0892639
-0.0892639
-0.088501
-0.0878906
-0.0871277
-0.0868225
-0.085907
-0.085144
-0.0840759
-0.0830078
-0.0820923
-0.0810242
-0.0788879
-0.0775146
-0.0756836
-0.0737
-0.071106
-0.0691223
-0.0669861
-0.0642395
-0.0617981
-0.0598145
-0.0579834
-0.0558472
-0.0546265
-0.0526428
-0.0514221
-0.050354
-0.0494385
-0.0483704
-0.0473022
-0.0468445
-0.045929
-0.0456238
-0.0450134
-0.0444031
-0.0437927
-0.0430298
-0.0416565
-0.0404358
-0.0389099
-0.0376892
-0.0360107
-0.0349426
-0.0332642
-0.0318909
-0.030365
-0.0289917
-0.0273132
-0.0257874
-0.0231934
-0.0210571
-0.0186157
-0.0164795
-0.0134277
-0.0105286
-0.00732422
-0.00396729
-0.0012207
0.00213623
0.00549316
0.00793457
0.0108337
0.0132751
0.0154114
0.0172424
0.0187683
0.0201416
0.0212097
0.022583
0.0241089
0.0254822
0.0273132
0.0288391
0.0306702
0.0326538
0.0352478
0.037384
0.0395203
0.0422668
0.0454712
0.0473022
0.0505066
0.0527954
0.0550842
0.057373
0.0596619
0.0616455
0.0637817
0.065918
0.0679016
0.0700378
0.0723267
0.0741577
0.0769043
0.0790405
0.0813293
0.0836182
0.0857544
0.0881958
0.0897217
0.0917053
0.0932312
0.0946045
0.0958252
0.096283
0.0971985
0.0975037
0.0982666
0.0985718
0.0991821
0.0997925
0.10025
0.101471
0.102539
0.103302
0.104523
0.105438
0.106354
0.106964
0.10788
0.108032
0.107574
0.106812
0.105743
0.103455
0.101318
0.0979614
0.0941467
0.0904846
0.0862122
0.0811768
0.0765991
0.0709534
0.0654602
0.059967
0.0543213
0.0480652
0.0422668
0.0363159
0.0300598
0.0234985
0.0164795
0.00991821
0.00244141
-0.00457764
-0.0119019
-0.0193787
-0.0260925
-0.0332642
-0.039978
-0.0468445
-0.0527954
-0.0592041
-0.0654602
-0.0704956
-0.0758362
-0.0802612
-0.0852966
-0.0892639
-0.0930786
-0.0968933
-0.100861
-0.104065
-0.107422
-0.110931
-0.113983
-0.117645
-0.119934
-0.122833
-0.12558
-0.127563
-0.129547
-0.131683
-0.133209
-0.134735
-0.136108
-0.137024
-0.137939
-0.139008
-0.139771
-0.140533
-0.141449
-0.14267
-0.144043
-0.145111
-0.14679
-0.147552
-0.148926
-0.149994
-0.150757
-0.151215
-0.151367
-0.15152
-0.151215
-0.150604
-0.149231
-0.147858
-0.146484
-0.144958
-0.143127
-0.141602
-0.139923
-0.138855
-0.137939
-0.137329
-0.136719
-0.136108
-0.135651
-0.13504
-0.135345
-0.13443
-0.133972
-0.133667
-0.133209
-0.132599
-0.132141
-0.131226
-0.13092
-0.130463
-0.1297
-0.129395
-0.128479
-0.128021
-0.127716
-0.127258
-0.126648
-0.125885
-0.125885
-0.125122
-0.124664
-0.124054
-0.123596
-0.122681
-0.121765
-0.12085
-0.120087
-0.118866
-0.118103
-0.117035
-0.116119
-0.115509
-0.115051
-0.114594
-0.114288
-0.114594
-0.113983
-0.114594
-0.114441
-0.115204
-0.115051
-0.115356
-0.114594
-0.113983
-0.112762
-0.111542
-0.109863
-0.107727
-0.105591
-0.102997
-0.100708
-0.0979614
-0.0956726
-0.093689
-0.0917053
-0.0900269
-0.088501
-0.0866699
-0.0852966
-0.0840759
-0.0827026
-0.0811768
-0.0796509
-0.0782776
-0.0770569
-0.0756836
-0.0741577
-0.072937
-0.0720215
-0.0704956
-0.0697327
-0.0689697
-0.068512
-0.0683594
-0.0683594
-0.0688171
-0.0691223
-0.0695801
-0.070343
-0.0712585
-0.0717163
-0.0726318
-0.0730896
-0.0735474
-0.0737
-0.0735474
-0.072937
-0.0721741
-0.0712585
-0.0701904
-0.0689697
-0.0682068
-0.0672913
-0.0669861
-0.0663757
-0.0663757
-0.0665283
-0.0669861
-0.0671387
-0.0675964
-0.067749
-0.0682068
-0.0683594
-0.0683594
-0.068512
-0.0689697
-0.0686646
-0.0682068
-0.0682068
-0.0679016
-0.0669861
-0.0665283
-0.065918
-0.065155
-0.0643921
-0.0639343
-0.0631714
-0.062561
-0.0619507
-0.0614929
-0.0608826
-0.0601196
-0.0593567
-0.0590515
-0.0578308
-0.0576782
-0.0566101
-0.0563049
-0.0556946
-0.0552368
-0.0552368
-0.0558472
-0.0559998
-0.057373
-0.0587463
-0.0598145
-0.0617981
-0.063324
-0.0648499
-0.0669861
-0.068512
-0.0700378
-0.0714111
-0.0726318
-0.0737
-0.0746155
-0.0747681
-0.0753784
-0.0759888
-0.0759888
-0.0764465
-0.0761414
-0.0765991
-0.0769043
-0.0772095
-0.0776672
-0.0782776
-0.0790405
-0.0799561
-0.0808716
-0.0816345
-0.0830078
-0.0836182
-0.0848389
-0.085144
-0.0856018
-0.0863647
-0.0871277
-0.0871277
-0.087738
-0.0881958
-0.0886536
-0.0889587
-0.0895691
-0.0900269
-0.090332
-0.0907898
-0.0909424
-0.0914001
-0.0914001
-0.0909424
-0.090332
-0.0897217
-0.0889587
-0.0875854
-0.0863647
-0.0849915
-0.0831604
-0.0816345
-0.0796509
-0.078125
-0.0767517
-0.0752258
-0.0744629
-0.0735474
-0.0730896
-0.0726318
-0.0733948
-0.0735474
-0.0740051
-0.0747681
-0.0749207
-0.075531
-0.075531
-0.0758362
-0.0756836
-0.0752258
-0.0746155
-0.0740051
-0.0735474
-0.0724792
-0.0718689
-0.0709534
-0.0706482
-0.0700378
-0.0698853
-0.0697327
-0.0698853
-0.0697327
-0.0695801
-0.0691223
-0.0688171
-0.0682068
-0.0674438
-0.0666809
-0.0657654
-0.0642395
-0.0627136
-0.0610352
-0.0590515
-0.0572205
-0.0552368
-0.0532532
-0.0514221
-0.0497437
-0.0482178
-0.0468445
-0.0447083
-0.0427246
-0.0408936
-0.0387573
-0.0367737
-0.0344849
-0.0317383
-0.0292969
-0.0271606
-0.0244141
-0.0221252
-0.0202942
-0.0183105
-0.0169373
-0.015564
-0.0146484
-0.0140381
-0.0134277
-0.0134277
-0.0135803
-0.0138855
-0.0143433
-0.0149536
-0.0154114
-0.0161743
-0.0163269
-0.0169373
-0.0166321
-0.0167847
-0.0166321
-0.0154114
-0.0143433
-0.0126648
-0.0105286
-0.00869751
-0.0062561
-0.00396729
-0.00152588
0.000610352
0.00335693
0.00595093
0.00854492
0.0109863
0.0137329
0.0166321
0.0192261
0.0219727
0.0239563
0.0256348
0.0274658
0.0292969
0.0299072
0.0302124
0.0302124
0.0296021
0.0282288
0.0263977
0.0234985
0.0198364
0.0154114
0.0109863
0.00534058
-0.000305176
-0.00656128
-0.0125122
-0.0193787
-0.0257874
-0.0325012
-0.0384521
-0.0442505
-0.050354
-0.0559998
-0.0614929
-0.0663757
-0.0715637
-0.0764465
-0.0808716
-0.0862122
-0.0907898
-0.0950623
-0.0999451
-0.10376
-0.107269
-0.110474
-0.11322
-0.115662
-0.11734
-0.118103
-0.119781
-0.120087
-0.120544
-0.120697
-0.120544
-0.120544
-0.120239
-0.119934
-0.119629
-0.119629
-0.119324
-0.119324
-0.118561
-0.118103
-0.11795
-0.116882
-0.116577
-0.115814
-0.115204
-0.114288
-0.113831
-0.112762
-0.112152
-0.111542
-0.110779
-0.110168
-0.109711
-0.109406
-0.108948
-0.108795
-0.1091
-0.109253
-0.109406
-0.109711
-0.110016
-0.109558
-0.109406
-0.108337
-0.107422
-0.106049
-0.104218
-0.102386
-0.100098
-0.0976562
-0.0958252
-0.0938416
-0.0912476
-0.0897217
-0.0886536
-0.0874329
-0.0868225
-0.0871277
-0.0874329
-0.0883484
-0.0895691
-0.0912476
-0.0924683
-0.0944519
-0.09552
-0.0967407
-0.0975037
-0.0979614
-0.0976562
-0.0967407
-0.0949097
-0.0917053
-0.0875854
-0.08255
-0.0758362
-0.0666809
-0.0558472
-0.0422668
-0.0263977
-0.00778198
0.0140381
0.0379944
0.0645447
0.0939941
0.125885
0.159454
0.19516
0.233612
0.273743
0.315704
0.359497
0.404358
0.450287
0.496521
0.542603
0.588989
0.633698
0.677643
0.718231
0.756073
0.7901
0.819244
0.842133
0.858612
0.866852
0.866699
0.857544
0.839081
0.811005
0.774078
0.727692
0.673218
0.610657
0.540771
0.465088
0.383301
0.298004
0.209656
0.120697
0.0318909
-0.0552368
-0.13855
-0.216827
-0.289001
-0.353241
-0.408173
-0.45517
-0.492706
-0.520325
-0.53894
-0.549774
-0.552063
-0.547638
-0.536804
-0.520782
-0.500488
-0.47699
-0.45105
-0.423737
-0.395966
-0.3685
-0.341339
-0.315704
-0.291748
-0.269928
-0.249634
-0.231934
-0.216522
-0.203094
-0.191956
-0.182343
-0.174561
-0.168762
-0.164795
-0.161743
-0.160065
-0.159454
-0.159149
-0.159912
-0.160522
-0.161591
-0.162354
-0.163116
-0.163879
-0.16449
-0.164337
-0.163574
-0.163422
-0.162201
-0.160522
-0.158997
-0.157166
-0.154724
-0.152435
-0.149994
-0.147552
-0.145111
-0.14328
-0.140686
-0.138245
-0.135803
-0.133667
-0.13092
-0.128784
-0.12619
-0.123444
-0.120392
-0.117645
-0.115051
-0.112152
-0.109711
-0.107422
-0.106201
-0.104523
-0.103302
-0.102386
-0.101624
-0.101318
-0.101013
-0.10025
-0.100403
-0.100403
-0.0999451
-0.0993347
-0.0990295
-0.0984192
-0.0971985
-0.096283
-0.0947571
-0.0935364
-0.0923157
-0.091095
-0.0901794
-0.0881958
-0.0872803
-0.0862122
-0.085144
-0.0842285
-0.0834656
-0.0827026
-0.0817871
-0.0810242
-0.0791931
-0.0785828
-0.0773621
-0.0759888
-0.0740051
-0.0721741
-0.0701904
-0.0686646
-0.0668335
-0.0650024
-0.063324
-0.0619507
-0.0610352
-0.0601196
-0.0596619
-0.0593567
-0.0595093
-0.0593567
-0.0592041
-0.0593567
-0.0592041
-0.0592041
-0.0588989
-0.0587463
-0.0579834
-0.0572205
-0.0558472
-0.0549316
-0.0537109
-0.0524902
-0.0514221
-0.0508118
-0.0495911
-0.0492859
-0.0488281
-0.0482178
-0.0476074
-0.0471497
-0.0465393
-0.045929
-0.0450134
-0.0439453
-0.042572
-0.0413513
-0.0395203
-0.0375366
-0.0354004
-0.0335693
-0.0314331
-0.0292969
-0.0274658
-0.0254822
-0.0239563
-0.0224304
-0.0212097
-0.0201416
-0.0189209
-0.0177002
-0.0167847
-0.0157166
-0.0141907
-0.0131226
-0.012207
-0.0105286
-0.00823975
-0.00671387
-0.00488281
-0.00335693
-0.000610352
0.0012207
0.00350952
0.00549316
0.00732422
0.00946045
0.0114441
0.0132751
0.015564
0.0175476
0.0201416
0.022583
0.025177
0.0282288
0.0314331
0.0346375
0.0382996
0.0419617
0.0454712
0.0497437
0.0540161
0.0578308
0.0622559
0.0662231
0.0698853
0.0737
0.0773621
0.0810242
0.0842285
0.0880432
0.0914001
0.0950623
0.0987244
0.102692
0.106659
0.110779
0.114899
0.118713
0.122833
0.126801
0.130615
0.134277
0.137329
0.140381
0.142975
0.145111
0.146942
0.148926
0.150604
0.15213
0.153656
0.154877
0.156708
0.157623
0.159454
0.161133
0.162659
0.164185
0.16571
0.167542
0.168915
0.170593
0.171661
0.172424
0.173035
0.173492
0.17334
0.17334
0.172424
0.171509
0.170288
0.169067
0.167847
0.166016
0.164337
0.162506
0.160675
0.158386
0.155945
0.153656
0.150299
0.147247
0.143585
0.139008
0.134583
0.129395
0.123749
0.117645
0.111389
0.10437
0.0973511
0.0904846
0.083313
0.0761414
0.0692749
0.0617981
0.0549316
0.0480652
0.0413513
0.0354004
0.0286865
0.022583
0.0158691
0.0102234
0.0038147
-0.00198364
-0.00823975
-0.0140381
-0.0195312
-0.0248718
-0.0299072
-0.0341797
-0.0389099
-0.0424194
-0.0457764
-0.0491333
-0.0518799
-0.0544739
-0.0570679
-0.0588989
-0.06073
-0.0628662
-0.0648499
-0.0665283
-0.0688171
-0.071106
-0.0726318
-0.075531
-0.0778198
-0.0798035
-0.0817871
-0.0837708
-0.0856018
-0.0868225
-0.0886536
-0.0892639
-0.0901794
-0.090332
-0.090332
-0.091095
-0.0909424
-0.0909424
-0.0909424
-0.0907898
-0.0906372
-0.0906372
-0.0915527
-0.0914001
-0.0915527
-0.0920105
-0.0918579
-0.0918579
-0.0912476
-0.0907898
-0.0901794
-0.0892639
-0.0878906
-0.0871277
-0.0857544
-0.0848389
-0.0834656
-0.0823975
-0.0817871
-0.0810242
-0.0805664
-0.0801086
-0.0801086
-0.0801086
-0.0804138
-0.0805664
-0.080719
-0.0808716
-0.0801086
-0.0799561
-0.0796509
-0.0790405
-0.0782776
-0.0773621
-0.0765991
-0.0752258
-0.0744629
-0.0733948
-0.0724792
-0.0715637
-0.071106
-0.070343
-0.0697327
-0.0695801
-0.0698853
-0.0697327
-0.0692749
-0.0694275
-0.068512
-0.0682068
-0.0672913
-0.0663757
-0.0654602
-0.0637817
-0.0624084
-0.0613403
-0.059967
-0.0582886
-0.0570679
-0.055542
-0.0553894
-0.0537109
-0.0535583
-0.052948
-0.0518799
-0.0515747
-0.0511169
-0.0508118
-0.0498962
-0.0494385
-0.0489807
-0.04776
-0.0471497
-0.0460815
-0.045166
-0.0440979
-0.0428772
-0.0421143
-0.0410461
-0.040741
-0.039978
-0.0401306
-0.0396729
-0.039978
-0.0401306
-0.039978
-0.0404358
-0.0405884
-0.0408936
-0.0405884
-0.0405884
-0.0405884
-0.0404358
-0.0398254
-0.0395203
-0.0389099
-0.0379944
-0.0376892
-0.037384
-0.0369263
-0.0366211
-0.0366211
-0.0366211
-0.0366211
-0.0369263
-0.0372314
-0.0370789
-0.0372314
-0.0367737
-0.0363159
-0.0358582
-0.0352478
-0.0341797
-0.0337219
-0.0326538
-0.0317383
-0.0314331
-0.0306702
-0.0305176
-0.0299072
-0.0300598
-0.030365
-0.0308228
-0.0311279
-0.0317383
-0.0331116
-0.0334167
-0.0340271
-0.0344849
-0.0352478
-0.0354004
-0.0352478
-0.0352478
-0.0354004
-0.0354004
-0.03479
-0.0344849
-0.0346375
-0.03479
-0.0346375
-0.0350952
-0.0360107
-0.0363159
-0.0375366
-0.0384521
-0.0396729
-0.0405884
-0.0411987
-0.0413513
-0.0421143
-0.0418091
-0.0422668
-0.0421143
-0.0418091
-0.0415039
-0.0411987
-0.0405884
-0.0404358
-0.0401306
-0.0398254
-0.0396729
-0.0401306
-0.0401306
-0.0405884
-0.0410461
-0.0419617
-0.0424194
-0.0427246
-0.0431824
-0.0434875
-0.0437927
-0.0439453
-0.0437927
-0.0437927
-0.0431824
-0.0427246
-0.0421143
-0.0413513
-0.0410461
-0.0404358
-0.0401306
-0.039978
-0.0398254
-0.0398254
-0.0395203
-0.0402832
-0.0404358
-0.0401306
-0.0401306
-0.0401306
-0.0396729
-0.0395203
-0.0390625
-0.0389099
-0.0382996
-0.0379944
-0.0375366
-0.0378418
-0.0376892
-0.0376892
-0.038147
-0.0387573
-0.0393677
-0.039978
-0.0404358
-0.0415039
-0.0421143
-0.0427246
-0.0428772
-0.043335
-0.0436401
-0.0436401
-0.0437927
-0.0430298
-0.0424194
-0.0419617
-0.0413513
-0.0410461
-0.040741
-0.0405884
-0.0404358
-0.0405884
-0.0408936
-0.0413513
-0.0422668
-0.0424194
-0.0431824
-0.0434875
-0.0439453
-0.0444031
-0.0444031
-0.0442505
-0.0444031
-0.0444031
-0.0439453
-0.043335
-0.0431824
-0.042572
-0.042572
-0.0422668
-0.0418091
-0.0419617
-0.0422668
-0.042572
-0.0427246
-0.0428772
-0.0430298
-0.0431824
-0.0431824
-0.0431824
-0.0427246
-0.042572
-0.0419617
-0.0413513
-0.040741
-0.0396729
-0.0389099
-0.0384521
-0.0382996
-0.0379944
-0.038147
-0.0382996
-0.0387573
-0.0392151
-0.0402832
-0.0408936
-0.0416565
-0.0418091
-0.0422668
-0.0428772
-0.0430298
-0.0430298
-0.0427246
-0.0422668
-0.042572
-0.0411987
-0.0408936
-0.0404358
-0.0404358
-0.0404358
-0.0401306
-0.040741
-0.0405884
-0.0416565
-0.0422668
-0.0427246
-0.0431824
-0.0437927
-0.0439453
-0.0445557
-0.0444031
-0.0444031
-0.0442505
-0.0437927
-0.0428772
-0.0424194
-0.0421143
-0.0418091
-0.0419617
-0.0419617
-0.0422668
-0.042572
-0.0427246
-0.0436401
-0.0437927
-0.0447083
-0.0456238
-0.0457764
-0.045929
-0.045929
-0.0457764
-0.0454712
-0.0445557
-0.0437927
-0.0424194
-0.0411987
-0.039978
-0.0386047
-0.0369263
-0.0354004
-0.0335693
-0.0318909
-0.030365
-0.0288391
-0.0273132
-0.0257874
-0.0241089
-0.0218201
-0.019989
-0.0169373
-0.0141907
-0.0109863
-0.00823975
-0.00518799
-0.00137329
0.00183105
0.00534058
0.00839233
0.0117493
0.0140381
0.0167847
0.0192261
0.0209045
0.0224304
0.0239563
0.0253296
0.0267029
0.0280762
0.0289917
0.0299072
0.0314331
0.0323486
0.0332642
0.0337219
0.0344849
0.03479
0.0350952
0.0346375
0.0346375
0.0338745
0.0331116
0.0325012
0.0317383
0.0308228
0.0300598
0.0294495
0.0292969
0.0288391
0.0291443
0.0297546
0.0305176
0.0317383
0.032959
0.0343323
0.0357056
0.0375366
0.0387573
0.0396729
0.0402832
0.0408936
0.0408936
0.0401306
0.0395203
0.0382996
0.0358582
0.032959
0.0294495
0.0256348
0.0213623
0.0170898
0.0123596
0.00778198
0.00259399
-0.00213623
-0.00686646
-0.0119019
-0.0166321
-0.0218201
-0.0268555
-0.0317383
-0.0370789
-0.0418091
-0.0469971
-0.0518799
-0.0570679
-0.0614929
-0.0657654
-0.0695801
-0.072937
-0.0759888
-0.0787354
-0.0810242
-0.0828552
-0.0846863
-0.0856018
-0.0869751
-0.087738
-0.0889587
-0.0897217
-0.0904846
-0.0909424
-0.0918579
-0.0921631
-0.0926208
-0.0933838
-0.093689
-0.0930786
-0.0933838
-0.0926208
-0.0920105
-0.0915527
-0.0901794
-0.0891113
-0.0875854
-0.0863647
-0.0848389
-0.0828552
-0.0817871
-0.0808716
-0.0799561
-0.0790405
-0.0788879
-0.0782776
-0.0782776
-0.078125
-0.0784302
-0.0782776
-0.0782776
-0.0776672
-0.0773621
-0.0769043
-0.0761414
-0.0756836
-0.0744629
-0.0738525
-0.0727844
-0.0718689
-0.0706482
-0.0695801
-0.0688171
-0.068512
-0.0675964
-0.0674438
-0.0674438
-0.0675964
-0.0679016
-0.0688171
-0.0692749
-0.0701904
-0.0715637
-0.0721741
-0.0727844
-0.0735474
-0.0737
-0.0730896
-0.0723267
-0.0712585
-0.0694275
-0.0674438
-0.0636292
-0.0593567
-0.0535583
-0.0463867
-0.0366211
-0.0247192
-0.0102234
0.00762939
0.0283813
0.0514221
0.0779724
0.106964
0.138397
0.172729
0.20874
0.246887
0.287628
0.3302
0.37384
0.418243
0.463409
0.509491
0.555878
0.601959
0.648193
0.692596
0.735626
0.775146
0.811615
0.843048
0.869293
0.888367
0.900116
0.902863
0.896759
0.880585
0.855103
0.819702
0.774689
0.720825
0.657806
0.58609
0.506744
0.4216
0.331116
0.237274
0.142212
0.04776
-0.0450134
-0.134125
-0.217896
-0.2948
-0.364075
-0.424194
-0.474548
-0.515594
-0.545654
-0.565643
-0.576477
-0.578003
-0.570831
-0.556641
-0.535889
-0.510254
-0.48111
-0.449982
-0.416565
-0.383301
-0.351105
-0.319824
-0.290833
-0.263824
-0.240173
-0.219269
-0.201721
-0.18692
-0.175629
-0.166016
-0.159302
-0.155487
-0.152435
-0.15152
-0.151978
-0.153198
-0.155182
-0.157471
-0.159607
-0.162048
-0.163727
-0.164948
-0.166016
-0.166626
-0.166168
-0.165405
-0.163727
-0.162201
-0.159302
-0.15686
-0.154266
-0.151215
-0.148468
-0.145569
-0.142822
-0.140839
-0.13855
-0.136414
-0.134125
-0.131683
-0.130157
-0.127716
-0.125427
-0.123291
-0.121002
-0.118713
-0.116425
-0.114594
-0.11261
-0.110779
-0.109253
-0.107727
-0.106964
-0.105743
-0.10498
-0.104828
-0.104523
-0.104065
-0.103149
-0.102844
-0.102386
-0.101929
-0.101166
-0.100403
-0.0990295
-0.0982666
-0.0967407
-0.0953674
-0.0938416
-0.0924683
-0.0909424
-0.0895691
-0.0881958
-0.0871277
-0.0857544
-0.0852966
-0.0842285
-0.0836182
-0.0830078
-0.0820923
-0.0816345
-0.0801086
-0.0790405
-0.078125
-0.0762939
-0.0747681
-0.0730896
-0.0717163
-0.0697327
-0.0682068
-0.0665283
-0.0650024
-0.0639343
-0.0627136
-0.0621033
-0.0611877
-0.0602722
-0.0590515
-0.0590515
-0.0576782
-0.0572205
-0.0558472
-0.0549316
-0.0537109
-0.0526428
-0.0517273
-0.0505066
-0.0494385
-0.0479126
-0.0471497
-0.0460815
-0.045166
-0.0450134
-0.0440979
-0.0444031
-0.0442505
-0.0442505
-0.0444031
-0.0445557
-0.0442505
-0.0442505
-0.0437927
-0.0431824
-0.0419617
-0.0402832
-0.0387573
-0.0366211
-0.0346375
-0.0323486
-0.0299072
-0.0273132
-0.0256348
-0.0231934
-0.0212097
-0.019989
-0.0184631
-0.0167847
-0.015564
-0.0141907
-0.0128174
-0.0112915
-0.00961304
-0.00793457
-0.00640869
-0.0050354
-0.00274658
-0.000610352
0.00137329
0.00320435
0.00564575
0.00778198
0.00961304
0.0111389
0.0132751
0.0151062
0.0166321
0.0180054
0.019989
0.0216675
0.0233459
0.0253296
0.0274658
0.0297546
0.032196
0.0350952
0.0378418
0.0405884
0.0436401
0.0473022
0.050354
0.0537109
0.0567627
0.0598145
0.0630188
0.0657654
0.0682068
0.071106
0.0730896
0.0753784
0.078125
0.0801086
0.0830078
0.0856018
0.0886536
0.0912476
0.0941467
0.0968933
0.0993347
0.102539
0.104675
0.10788
0.110168
0.112305
0.114746
0.116425
0.11795
0.120087
0.12146
0.122986
0.124969
0.126801
0.128632
0.130615
0.132599
0.134888
0.137329
0.13916
0.141602
0.143738
0.146179
0.1474
0.149231
0.150452
0.151367
0.15213
0.152435
0.15274
0.152283
0.15213
0.151978
0.15152
0.150757
0.149689
0.148773
0.147858
0.14679
0.144958
0.143127
0.141296
0.139313
0.136261
0.132904
0.128937
0.124969
0.120087
0.114899
0.108795
0.102844
0.0967407
0.0900269
0.0837708
0.0767517
0.070343
0.0637817
0.0569153
0.0508118
0.0436401
0.037384
0.0308228
0.0236511
0.0166321
0.00991821
0.00274658
-0.00427246
-0.0115967
-0.0187683
-0.0263977
-0.0335693
-0.0405884
-0.04776
-0.0544739
-0.0608826
-0.0668335
-0.0724792
-0.0778198
-0.08255
-0.0868225
-0.091095
-0.0947571
-0.0984192
-0.101776
-0.105286
-0.108185
-0.111237
-0.114594
-0.11734
-0.119629
-0.122375
-0.124664
-0.126343
-0.128021
-0.129242
-0.130157
-0.130768
-0.131683
-0.131683
-0.13092
-0.131073
-0.130615
-0.13031
-0.129852
-0.129395
-0.128632
-0.128784
-0.128937
-0.129089
-0.128784
-0.129395
-0.129242
-0.129395
-0.129547
-0.128784
-0.128326
-0.128479
-0.127563
-0.126343
-0.125427
-0.124207
-0.122986
-0.122375
-0.121155
-0.120392
-0.119324
-0.118561
-0.118103
-0.117645
-0.117188
-0.116882
-0.116882
-0.115967
-0.115204
-0.114594
-0.113373
-0.112152
-0.111389
-0.110321
-0.108795
-0.107269
-0.106049
-0.104523
-0.102692
-0.102081
-0.100708
-0.100098
-0.0994873
-0.0990295
-0.098877
-0.0991821
-0.0987244
-0.0984192
-0.0979614
-0.0975037
-0.0965881
-0.0959778
-0.0953674
-0.0939941
-0.0932312
-0.0921631
-0.0904846
-0.0898743
-0.0892639
-0.0881958
-0.0872803
-0.0865173
-0.0863647
-0.085907
-0.0857544
-0.0857544
-0.085144
-0.0848389
-0.0846863
-0.0842285
-0.0834656
-0.0828552
-0.0819397
-0.0813293
-0.0796509
-0.0782776
-0.0772095
-0.0762939
-0.0750732
-0.0735474
-0.0726318
-0.0715637
-0.071106
-0.070343
-0.0695801
-0.0689697
-0.0686646
-0.0682068
-0.0674438
-0.0665283
-0.0654602
-0.0645447
-0.0630188
-0.0614929
-0.059967
-0.0582886
-0.0569153
-0.0553894
-0.0547791
-0.0538635
-0.052948
-0.0531006
-0.0531006
-0.0531006
-0.0534058
-0.0537109
-0.0544739
-0.0543213
-0.0540161
-0.0540161
-0.0535583
-0.052948
-0.0523376
-0.0515747
-0.0506592
-0.0500488
-0.0492859
-0.0483704
-0.0476074
-0.0469971
-0.0466919
-0.0463867
-0.045929
-0.045929
-0.0462341
-0.0462341
-0.0468445
-0.0469971
-0.0469971
-0.0474548
-0.0476074
-0.0473022
-0.0471497
-0.0468445
-0.0462341
-0.0457764
-0.045166
-0.0450134
-0.0447083
-0.0442505
-0.0440979
-0.0442505
-0.0447083
-0.0448608
-0.0453186
-0.0454712
-0.0457764
-0.0462341
-0.0462341
-0.0460815
-0.0460815
-0.0463867
-0.045929
-0.0457764
-0.0453186
-0.045166
-0.0448608
-0.0444031
-0.0442505
-0.0439453
-0.0439453
-0.0444031
-0.0447083
-0.045166
-0.0460815
-0.0463867
-0.0471497
-0.0482178
-0.0488281
-0.0488281
-0.0495911
-0.0495911
-0.0494385
-0.0492859
-0.0492859
-0.0489807
-0.0483704
-0.0483704
-0.0480652
-0.0479126
-0.0483704
-0.0483704
-0.0492859
-0.0498962
-0.0508118
-0.0520325
-0.0526428
-0.0535583
-0.0544739
-0.0550842
-0.0556946
-0.0558472
-0.0558472
-0.0559998
-0.0558472
-0.0553894
-0.0553894
-0.0550842
-0.0547791
-0.0546265
-0.0547791
-0.0552368
-0.0553894
-0.055542
-0.0561523
-0.0566101
-0.0572205
-0.0578308
-0.0582886
-0.0579834
-0.0582886
-0.0579834
-0.0575256
-0.0570679
-0.0559998
-0.0552368
-0.0544739
-0.0541687
-0.0535583
-0.0531006
-0.0534058
-0.0531006
-0.0532532
-0.0534058
-0.0532532
-0.0543213
-0.0547791
-0.0549316
-0.0550842
-0.0553894
-0.0556946
-0.055542
-0.055542
-0.0553894
-0.0550842
-0.0550842
-0.0549316
-0.0546265
-0.0547791
-0.0546265
-0.0546265
-0.0546265
-0.0547791
-0.0553894
-0.055542
-0.0559998
-0.0561523
-0.0563049
-0.0559998
-0.0561523
-0.0558472
-0.0553894
-0.0550842
-0.0537109
-0.0531006
-0.0524902
-0.0517273
-0.0506592
-0.0500488
-0.0497437
-0.0494385
-0.0492859
-0.0494385
-0.0497437
-0.0500488
-0.050354
-0.0506592
-0.0506592
-0.0508118
-0.0505066
-0.0502014
-0.0491333
-0.0486755
-0.04776
-0.0468445
-0.045929
-0.0445557
-0.0442505
-0.0428772
-0.0427246
-0.0424194
-0.042572
-0.0427246
-0.0430298
-0.0436401
-0.0440979
-0.0447083
-0.0456238
-0.045929
-0.0462341
-0.0463867
-0.0463867
-0.0468445
-0.0465393
-0.0460815
-0.0456238
-0.0448608
-0.0440979
-0.043335
-0.0431824
-0.0428772
-0.0424194
-0.0427246
-0.0427246
-0.0430298
-0.0427246
-0.0430298
-0.0428772
-0.0428772
-0.0427246
-0.042572
-0.0419617
-0.0415039
-0.0411987
-0.0404358
-0.0401306
-0.0392151
-0.0389099
-0.0390625
-0.0389099
-0.0389099
-0.0390625
-0.039978
-0.0402832
-0.0408936
-0.0419617
-0.0416565
-0.0427246
-0.0428772
-0.0427246
-0.042572
-0.0424194
-0.0419617
-0.0410461
-0.0402832
-0.0392151
-0.038147
-0.0376892
-0.0361633
-0.0352478
-0.03479
-0.0343323
-0.0338745
-0.0338745
-0.0334167
-0.0337219
-0.0335693
-0.0340271
-0.0337219
-0.0337219
-0.0334167
-0.0332642
-0.0331116
-0.0323486
-0.032196
-0.0317383
-0.0308228
-0.0300598
-0.0297546
-0.0292969
-0.0296021
-0.0296021
-0.0296021
-0.0300598
-0.0300598
-0.0302124
-0.0308228
-0.0308228
-0.0311279
-0.0309753
-0.0305176
-0.030365
-0.0297546
-0.0291443
-0.0283813
-0.0273132
-0.0262451
-0.0248718
-0.0242615
-0.0228882
-0.0222778
-0.0210571
-0.020752
-0.0198364
-0.0190735
-0.018158
-0.0167847
-0.0154114
-0.0134277
-0.0119019
-0.0088501
-0.00610352
-0.00289917
0.000152588
0.00350952
0.00686646
0.0109863
0.0138855
0.0167847
0.0195312
0.0216675
0.0236511
0.025177
0.0263977
0.0274658
0.0285339
0.0292969
0.0296021
0.0300598
0.0302124
0.0297546
0.0300598
0.0294495
0.0294495
0.0289917
0.0288391
0.0286865
0.0286865
0.0286865
0.0285339
0.0291443
0.0292969
0.0300598
0.030365
0.0312805
0.0325012
0.0334167
0.0350952
0.0369263
0.0382996
0.039978
0.0419617
0.0439453
0.0463867
0.04776
0.0495911
0.0506592
0.0515747
0.0517273
0.0512695
0.0502014
0.0480652
0.0453186
0.0419617
0.038147
0.0332642
0.0282288
0.0230408
0.0177002
0.0115967
0.00610352
0.000610352
-0.00473022
-0.010376
-0.0154114
-0.0204468
-0.0253296
-0.030365
-0.0352478
-0.0393677
-0.0445557
-0.0486755
-0.0531006
-0.0579834
-0.0621033
-0.0662231
-0.0704956
-0.0735474
-0.0762939
-0.0794983
-0.0814819
-0.0834656
-0.0856018
-0.0866699
-0.0878906
-0.0891113
-0.0898743
-0.0901794
-0.0907898
-0.0912476
-0.0917053
-0.0918579
-0.0920105
-0.0924683
-0.0924683
-0.0924683
-0.0923157
-0.0920105
-0.091095
-0.0909424
-0.0897217
-0.0886536
-0.0880432
-0.0860596
-0.0849915
-0.0834656
-0.0822449
-0.0811768
-0.0801086
-0.0791931
-0.0787354
-0.078125
-0.0776672
-0.0775146
-0.0778198
-0.0776672
-0.0775146
-0.0773621
-0.0772095
-0.0762939
-0.075531
-0.0747681
-0.0738525
-0.0723267
-0.0718689
-0.0706482
-0.0695801
-0.0682068
-0.0674438
-0.0669861
-0.0669861
-0.0671387
-0.0674438
-0.0682068
-0.0694275
-0.0706482
-0.0726318
-0.0740051
-0.0756836
-0.0770569
-0.0779724
-0.0782776
-0.0785828
-0.0784302
-0.0775146
-0.0753784
-0.0724792
-0.0686646
-0.063324
-0.0559998
-0.0471497
-0.0363159
-0.022583
-0.00717163
0.0117493
0.032959
0.0572205
0.0839233
0.113678
0.145721
0.180359
0.218201
0.257111
0.298615
0.342102
0.3862
0.431519
0.477753
0.524445
0.571136
0.617828
0.6633
0.707092
0.748444
0.786591
0.82016
0.848999
0.871582
0.887146
0.894165
0.892639
0.881805
0.860901
0.830994
0.791626
0.743103
0.68573
0.620422
0.546722
0.466766
0.380707
0.290527
0.197906
0.103912
0.0109863
-0.0798035
-0.166321
-0.247345
-0.321198
-0.38681
-0.443268
-0.489502
-0.526123
-0.552521
-0.569305
-0.576172
-0.574493
-0.564423
-0.547638
-0.525513
-0.498505
-0.468292
-0.436554
-0.403442
-0.370483
-0.338898
-0.308075
-0.279541
-0.253906
-0.230713
-0.210724
-0.193176
-0.179291
-0.167389
-0.158386
-0.151672
-0.1474
-0.144501
-0.143433
-0.143585
-0.144653
-0.146484
-0.148926
-0.150909
-0.153656
-0.155792
-0.157776
-0.159149
-0.159454
-0.15976
-0.159302
-0.158234
-0.15625
-0.154114
-0.151367
-0.148468
-0.145569
-0.142059
-0.139008
-0.135956
-0.133209
-0.130615
-0.128326
-0.126038
-0.123901
-0.12207
-0.120392
-0.119171
-0.117798
-0.116425
-0.115051
-0.113678
-0.112305
-0.110779
-0.109711
-0.108337
-0.106659
-0.105591
-0.104218
-0.103302
-0.102386
-0.101166
-0.101013
-0.100403
-0.0997925
-0.0990295
-0.0985718
-0.0976562
-0.0967407
-0.0959778
-0.0944519
-0.0933838
-0.0918579
-0.0901794
-0.088501
-0.0868225
-0.0848389
-0.0834656
-0.0820923
-0.0810242
-0.0802612
-0.0793457
-0.0787354
-0.0782776
-0.0779724
-0.0776672
-0.0778198
-0.0772095
-0.0767517
-0.0764465
-0.075531
-0.0747681
-0.0738525
-0.0726318
-0.0709534
-0.0698853
-0.0683594
-0.0671387
-0.0657654
-0.0646973
-0.0642395
-0.063324
-0.0627136
-0.0627136
-0.0619507
-0.0619507
-0.0611877
-0.0608826
-0.0602722
-0.0598145
-0.0585938
-0.0578308
-0.0569153
-0.0553894
-0.0541687
-0.052948
-0.0517273
-0.0497437
-0.0486755
-0.0476074
-0.0463867
-0.0453186
-0.0444031
-0.0431824
-0.0424194
-0.0413513
-0.040741
-0.0396729
-0.0382996
-0.0369263
-0.0352478
-0.0331116
-0.0311279
-0.0294495
-0.0270081
-0.0247192
-0.0227356
-0.0204468
-0.0186157
-0.0169373
-0.0154114
-0.0138855
-0.0128174
-0.0117493
-0.0109863
-0.00991821
-0.00869751
-0.00778198
-0.00656128
-0.00534058
-0.00320435
-0.00167847
0.000610352
0.00274658
0.00534058
0.00778198
0.00991821
0.0119019
0.0143433
0.0163269
0.018158
0.0201416
0.0215149
0.0230408
0.0244141
0.0260925
0.0279236
0.0300598
0.0318909
0.0341797
0.0367737
0.0395203
0.0422668
0.0448608
0.0480652
0.0515747
0.0546265
0.0576782
0.06073
0.0640869
0.0666809
0.0695801
0.0720215
0.0749207
0.0775146
0.0799561
0.0823975
0.0848389
0.0878906
0.0909424
0.0933838
0.0970459
0.0999451
0.102997
0.106354
0.109406
0.112762
0.115967
0.118561
0.121307
0.123749
0.125885
0.128021
0.129852
0.131683
0.133514
0.135345
0.137787
0.13916
0.141449
0.144196
0.146332
0.148468
0.151367
0.153503
0.155945
0.158234
0.159912
0.161743
0.163269
0.164185
0.164642
0.164642
0.16449
0.163727
0.163116
0.162811
0.161591
0.160217
0.158844
0.157928
0.155945
0.154572
0.15213
0.149689
0.147247
0.144348
0.140839
0.137329
0.132904
0.128021
0.122986
0.11734
0.110931
0.104065
0.0978088
0.0898743
0.0827026
0.075531
0.0674438
0.0596619
0.0526428
0.0445557
0.0370789
0.0296021
0.0219727
0.0149536
0.00686646
-0.000152588
-0.00793457
-0.0151062
-0.0224304
-0.0294495
-0.0370789
-0.0436401
-0.0505066
-0.0570679
-0.062561
-0.0683594
-0.0735474
-0.078125
-0.08255
-0.0865173
-0.090332
-0.093689
-0.0965881
-0.0993347
-0.102081
-0.10498
-0.107574
-0.110168
-0.112915
-0.115356
-0.117798
-0.120087
-0.122681
-0.124512
-0.126038
-0.127411
-0.128784
-0.129852
-0.130005
-0.13031
-0.130157
-0.130005
-0.129852
-0.129547
-0.128937
-0.128326
-0.128326
-0.128174
-0.128174
-0.128021
-0.128021
-0.128784
-0.128326
-0.128479
-0.128021
-0.127563
-0.127106
-0.126038
-0.125275
-0.123901
-0.12207
-0.120697
-0.119171
-0.11734
-0.115967
-0.114288
-0.112762
-0.111542
-0.110474
-0.109863
-0.109253
-0.108643
-0.108185
-0.108032
-0.107727
-0.106964
-0.106659
-0.106049
-0.105591
-0.104523
-0.104065
-0.103455
-0.102081
-0.101166
-0.100708
-0.100098
-0.0994873
-0.098877
-0.0985718
-0.0982666
-0.098114
-0.0976562
-0.0971985
-0.0967407
-0.096283
-0.0956726
-0.0950623
-0.0939941
-0.0933838
-0.0917053
-0.0907898
-0.0897217
-0.0891113
-0.0872803
-0.0865173
-0.0852966
-0.0849915
-0.0842285
-0.0840759
-0.0839233
-0.0840759
-0.0837708
-0.0837708
-0.0839233
-0.0834656
-0.0831604
-0.08255
-0.0814819
-0.0802612
-0.0791931
-0.0775146
-0.0756836
-0.0741577
-0.0726318
-0.0708008
-0.0697327
-0.0683594
-0.0672913
-0.0665283
-0.065918
-0.0654602
-0.0654602
-0.065155
-0.0650024
-0.0650024
-0.065155
-0.065155
-0.0646973
-0.0640869
-0.0640869
-0.063324
-0.0630188
-0.062561
-0.0613403
-0.0610352
-0.0601196
-0.0596619
-0.0592041
-0.0584412
-0.0585938
-0.0584412
-0.0578308
-0.0576782
-0.0572205
-0.0564575
-0.0559998
-0.0553894
-0.0544739
-0.0531006
-0.0520325
-0.0512695
-0.0500488
-0.0491333
-0.0486755
-0.0483704
-0.0482178
-0.0483704
-0.0483704
-0.0489807
-0.0492859
-0.0498962
-0.0505066
-0.0511169
-0.0512695
-0.0518799
-0.0518799
-0.0518799
-0.0517273
-0.0512695
-0.050354
-0.0495911
-0.0483704
-0.0476074
-0.0465393
-0.0456238
-0.0450134
-0.0439453
-0.0439453
-0.0437927
-0.0436401
-0.0437927
-0.0442505
-0.0444031
-0.0448608
-0.0453186
-0.0454712
-0.0456238
-0.0457764
-0.0454712
-0.0454712
-0.045166
-0.0450134
-0.0444031
-0.0444031
-0.0442505
-0.0440979
-0.0445557
-0.0450134
-0.0456238
-0.0463867
-0.0471497
-0.0483704
-0.0492859
-0.0502014
-0.0509644
-0.0511169
-0.0514221
-0.0515747
-0.0517273
-0.0517273
-0.0509644
-0.0502014
-0.0495911
-0.0488281
-0.0482178
-0.04776
-0.0476074
-0.0473022
-0.0474548
-0.0479126
-0.0486755
-0.0491333
-0.0494385
-0.0498962
-0.050354
-0.0506592
-0.0506592
-0.0505066
-0.050354
-0.050354
-0.0495911
-0.0494385
-0.0485229
-0.0482178
-0.0476074
-0.0471497
-0.0465393
-0.0462341
-0.0463867
-0.0463867
-0.0466919
-0.0471497
-0.0476074
-0.0476074
-0.0474548
-0.0479126
-0.0480652
-0.0480652
-0.0476074
-0.0466919
-0.0468445
-0.0465393
-0.045929
-0.0456238
-0.045166
-0.0456238
-0.0454712
-0.0456238
-0.0460815
-0.0465393
-0.0471497
-0.04776
-0.0479126
-0.0482178
-0.0485229
-0.0486755
-0.0488281
-0.0485229
-0.0485229
-0.0480652
-0.0474548
-0.0471497
-0.0463867
-0.0454712
-0.0453186
-0.0448608
-0.0447083
-0.0448608
-0.0448608
-0.0454712
-0.0454712
-0.0457764
-0.0460815
-0.0460815
-0.0460815
-0.0465393
-0.0460815
-0.0460815
-0.045166
-0.0444031
-0.0434875
-0.042572
-0.0421143
-0.0411987
-0.0404358
-0.0396729
-0.0393677
-0.0392151
-0.0395203
-0.0398254
-0.0401306
-0.0401306
-0.0408936
-0.0411987
-0.0415039
-0.0418091
-0.0419617
-0.0422668
-0.0422668
-0.0421143
-0.0419617
-0.0419617
-0.0413513
-0.0411987
-0.0405884
-0.0405884
-0.0402832
-0.040741
-0.0402832
-0.040741
-0.0408936
-0.0411987
-0.0410461
-0.0410461
-0.0411987
-0.0413513
-0.0408936
-0.040741
-0.0401306
-0.0398254
-0.0395203
-0.0386047
-0.038147
-0.0376892
-0.0372314
-0.0369263
-0.0367737
-0.0370789
-0.037384
-0.0379944
-0.0389099
-0.0393677
-0.039978
-0.0405884
-0.0411987
-0.0410461
-0.0413513
-0.0411987
-0.040741
-0.0404358
-0.0392151
-0.0389099
-0.0376892
-0.0370789
-0.0363159
-0.0360107
-0.0354004
-0.035553
-0.035553
-0.0354004
-0.0358582
-0.0363159
-0.0363159
-0.0366211
-0.0364685
-0.0372314
-0.0372314
-0.0366211
-0.0358582
-0.035553
-0.03479
-0.0340271
-0.032959
-0.0320435
-0.0317383
-0.0308228
-0.030365
-0.030365
-0.0302124
-0.0305176
-0.0312805
-0.0314331
-0.0318909
-0.0325012
-0.0328064
-0.032959
-0.0331116
-0.0328064
-0.0328064
-0.0325012
-0.0325012
-0.0323486
-0.0320435
-0.0315857
-0.0314331
-0.0314331
-0.0315857
-0.0317383
-0.032196
-0.0328064
-0.0328064
-0.0334167
-0.0334167
-0.0340271
-0.0340271
-0.0341797
-0.0340271
-0.0332642
-0.0331116
-0.0328064
-0.0320435
-0.0312805
-0.0312805
-0.0306702
-0.0306702
-0.0306702
-0.0309753
-0.0311279
-0.0315857
-0.0320435
-0.0334167
-0.0344849
-0.0354004
-0.0358582
-0.0364685
-0.037384
-0.0370789
-0.0372314
-0.0370789
-0.0367737
-0.035553
-0.03479
-0.0338745
-0.0337219
-0.0323486
-0.0317383
-0.0311279
-0.0305176
-0.030365
-0.0302124
-0.0294495
-0.0292969
-0.0291443
-0.0288391
-0.0280762
-0.027771
-0.0271606
-0.0265503
-0.0250244
-0.0238037
-0.0216675
-0.019989
-0.0175476
-0.0157166
-0.0134277
-0.0112915
-0.0088501
-0.00717163
-0.00488281
-0.00305176
-0.00106812
0.000915527
0.00244141
0.00396729
0.00579834
0.00732422
0.00915527
0.0105286
0.0126648
0.014801
0.0163269
0.0180054
0.0190735
0.0202942
0.0209045
0.0213623
0.0212097
0.020752
0.019989
0.0187683
0.0177002
0.0163269
0.0152588
0.0143433
0.0138855
0.0140381
0.0141907
0.0146484
0.0158691
0.0170898
0.0189209
0.020752
0.0224304
0.0248718
0.0267029
0.0283813
0.0300598
0.0317383
0.0331116
0.0338745
0.0341797
0.0343323
0.0341797
0.0338745
0.0325012
0.0315857
0.0296021
0.0274658
0.0244141
0.0215149
0.0178528
0.0138855
0.00976562
0.00457764
-0.000152588
-0.00534058
-0.0106812
-0.0163269
-0.0219727
-0.0282288
-0.0340271
-0.0395203
-0.045166
-0.0505066
-0.0550842
-0.0593567
-0.0634766
-0.0674438
-0.070343
-0.072937
-0.0756836
-0.0778198
-0.0794983
-0.0813293
-0.0830078
-0.0846863
-0.0863647
-0.0878906
-0.0897217
-0.0912476
-0.0932312
-0.0946045
-0.0959778
-0.0970459
-0.0979614
-0.0985718
-0.098877
-0.0990295
-0.0985718
-0.0978088
-0.0967407
-0.0956726
-0.0942993
-0.093689
-0.0921631
-0.0914001
-0.0901794
-0.0892639
-0.0895691
-0.0892639
-0.0888062
-0.0891113
-0.0891113
-0.0892639
-0.0891113
-0.0892639
-0.0889587
-0.0883484
-0.0883484
-0.0872803
-0.0869751
-0.0860596
-0.085144
-0.0842285
-0.083313
-0.0820923
-0.0811768
-0.0805664
-0.0799561
-0.0793457
-0.0788879
-0.0787354
-0.078125
-0.0776672
-0.0773621
-0.0770569
-0.0769043
-0.0762939
-0.0765991
-0.0772095
-0.0775146
-0.0778198
-0.0790405
-0.0796509
-0.0808716
-0.0816345
-0.08255
-0.0828552
-0.0830078
-0.0823975
-0.0804138
-0.0775146
-0.0732422
-0.0666809
-0.0584412
-0.0468445
-0.0332642
-0.0160217
0.00350952
0.0263977
0.0523376
0.0811768
0.112152
0.146332
0.18219
0.220642
0.261078
0.302734
0.346375
0.390778
0.436096
0.482025
0.528717
0.575409
0.622101
0.667572
0.711517
0.752869
0.790405
0.823975
0.851593
0.87204
0.88562
0.89035
0.884857
0.870056
0.84549
0.811005
0.766754
0.713654
0.651855
0.581818
0.504608
0.421448
0.332947
0.241241
0.148163
0.0550842
-0.0361633
-0.124664
-0.208435
-0.284576
-0.354614
-0.415192
-0.467072
-0.509491
-0.541534
-0.563965
-0.577087
-0.580902
-0.576935
-0.564728
-0.546722
-0.522461
-0.494537
-0.463867
-0.430908
-0.397644
-0.365143
-0.333099
-0.303345
-0.275421
-0.250549
-0.228729
-0.209656
-0.194092
-0.181732
-0.171967
-0.164642
-0.160065
-0.157013
-0.15564
-0.155029
-0.155792
-0.15686
-0.158081
-0.159149
-0.160522
-0.16098
-0.161896
-0.162048
-0.161133
-0.160828
-0.15976
-0.158234
-0.157166
-0.15564
-0.154266
-0.152435
-0.150909
-0.149384
-0.1474
-0.146027
-0.144043
-0.142212
-0.140076
-0.138092
-0.136108
-0.133972
-0.131378
-0.129547
-0.127258
-0.124969
-0.123596
-0.121613
-0.119934
-0.118103
-0.117035
-0.116272
-0.116119
-0.115051
-0.114594
-0.113678
-0.113373
-0.112152
-0.111389
-0.110474
-0.1091
-0.10788
-0.106354
-0.104675
-0.102844
-0.101166
-0.0999451
-0.0984192
-0.0973511
-0.0965881
-0.0956726
-0.0947571
-0.0942993
-0.0941467
-0.093689
-0.0933838
-0.0926208
-0.0921631
-0.0909424
-0.090332
-0.0889587
-0.0872803
-0.0862122
-0.0840759
-0.0823975
-0.0802612
-0.0784302
-0.0767517
-0.075531
-0.0738525
-0.0726318
-0.0712585
-0.070343
-0.0692749
-0.0686646
-0.0680542
-0.0675964
-0.0669861
-0.0660706
-0.0656128
-0.0643921
-0.063324
-0.0627136
-0.0616455
-0.06073
-0.0595093
-0.0588989
-0.0578308
-0.0567627
-0.0559998
-0.0556946
-0.0549316
-0.0541687
-0.0535583
-0.0527954
-0.0523376
-0.0512695
-0.0502014
-0.0488281
-0.0476074
-0.045929
-0.0436401
-0.0413513
-0.0387573
-0.0370789
-0.03479
-0.0326538
-0.0305176
-0.0288391
-0.0268555
-0.0254822
-0.0242615
-0.0233459
-0.022583
-0.0216675
-0.0209045
-0.0204468
-0.0193787
-0.0184631
-0.017395
-0.0163269
-0.0151062
-0.0140381
-0.0125122
-0.0114441
-0.00946045
-0.00808716
-0.00610352
-0.00473022
-0.00305176
-0.0012207
0.000152588
0.00183105
0.00335693
0.00518799
0.00701904
0.00915527
0.0112915
0.0138855
0.0163269
0.0195312
0.0231934
0.0262451
0.0297546
0.0335693
0.0369263
0.0402832
0.0431824
0.0465393
0.0495911
0.0518799
0.0546265
0.0566101
0.0590515
0.0604248
0.0624084
0.0648499
0.0671387
0.0694275
0.0721741
0.0747681
0.0776672
0.0811768
0.0843811
0.0878906
0.091095
0.0944519
0.098114
0.101166
0.104523
0.107422
0.110474
0.112762
0.115509
0.118103
0.120239
0.122833
0.125427
0.127716
0.13031
0.132904
0.135345
0.138092
0.140533
0.142975
0.145111
0.147095
0.149078
0.149841
0.150757
0.15152
0.15213
0.15213
0.152435
0.152588
0.152435
0.152435
0.152588
0.152893
0.152893
0.153198
0.153503
0.153809
0.154419
0.154572
0.155029
0.154419
0.153961
0.152893
0.15152
0.149536
0.1474
0.144348
0.140991
0.137177
0.132751
0.127716
0.122833
0.11734
0.112457
0.106354
0.100403
0.0946045
0.0881958
0.0810242
0.0744629
0.0672913
0.0602722
0.0524902
0.0447083
0.0367737
0.0283813
0.019989
0.0112915
0.00289917
-0.0050354
-0.0132751
-0.0205994
-0.0279236
-0.03479
-0.0415039
-0.0476074
-0.0537109
-0.0593567
-0.0645447
-0.0695801
-0.0744629
-0.0794983
-0.0837708
-0.0883484
-0.0926208
-0.0965881
-0.101471
-0.105591
-0.109711
-0.113068
-0.116272
-0.118866
-0.12146
-0.123291
-0.125122
-0.126343
-0.127716
-0.128174
-0.128632
-0.128937
-0.129089
-0.129089
-0.129242
-0.129547
-0.129852
-0.130005
-0.130463
-0.130463
-0.131073
-0.131226
-0.131378
-0.131073
-0.13092
-0.130157
-0.129852
-0.128937
-0.128174
-0.126953
-0.12619
-0.124817
-0.123901
-0.122833
-0.121918
-0.121307
-0.120697
-0.120392
-0.119934
-0.119781
-0.119629
-0.119324
-0.119019
-0.118866
-0.117798
-0.117035
-0.116577
-0.115356
-0.114288
-0.11322
-0.112305
-0.111542
-0.110474
-0.109558
-0.108948
-0.108337
-0.107727
-0.10788
-0.107574
-0.107269
-0.107727
-0.107574
-0.107727
-0.106964
-0.106506
-0.106049
-0.10498
-0.103912
-0.102844
-0.101929
-0.101013
-0.100098
-0.0990295
-0.0984192
-0.0979614
-0.098114
-0.0975037
-0.0976562
-0.0978088
-0.0982666
-0.0979614
-0.0976562
-0.0976562
-0.0971985
-0.0967407
-0.0961304
-0.0949097
-0.0939941
-0.0924683
-0.091095
-0.0891113
-0.0874329
-0.0857544
-0.0840759
-0.0823975
-0.0811768
-0.0801086
-0.0790405
-0.0785828
-0.0779724
-0.0775146
-0.0773621
-0.0767517
-0.0758362
-0.0758362
-0.0752258
-0.0746155
-0.0738525
-0.0727844
-0.0727844
-0.0717163
-0.0714111
-0.0706482
-0.0701904
-0.0701904
-0.0695801
-0.0695801
-0.0698853
-0.0701904
-0.0709534
-0.0712585
-0.0718689
-0.0720215
-0.0718689
-0.0720215
-0.0715637
-0.071106
-0.070343
-0.0691223
-0.068512
-0.0671387
-0.0662231
-0.0653076
-0.0643921
-0.0639343
-0.0639343
-0.0634766
-0.0637817
-0.0640869
-0.0643921
-0.065155
-0.0656128
-0.0662231
-0.0668335
-0.0668335
-0.0671387
-0.0669861
-0.0666809
-0.0663757
-0.0665283
-0.0657654
-0.0654602
-0.0650024
-0.0648499
-0.0642395
-0.0645447
-0.0645447
-0.0643921
-0.0646973
-0.0643921
-0.0646973
-0.0650024
-0.0646973
-0.0646973
-0.0653076
-0.0653076
-0.0654602
-0.0654602
-0.0654602
-0.0654602
-0.0656128
-0.0654602
-0.065155
-0.0653076
-0.0650024
-0.0648499
-0.0648499
-0.0654602
-0.0656128
-0.0657654
-0.0660706
-0.0660706
-0.0663757
-0.0660706
-0.0662231
-0.0657654
-0.0650024
-0.0640869
-0.063324
-0.0628662
-0.0621033
-0.0616455
-0.0605774
-0.0605774
-0.0605774
-0.0608826
-0.0614929
-0.0617981
-0.063324
-0.0640869
-0.065155
-0.0656128
-0.0665283
-0.0666809
-0.0674438
-0.0675964
-0.067749
-0.0680542
-0.0679016
-0.0683594
-0.0680542
-0.0682068
-0.0680542
-0.068512
-0.0691223
-0.0691223
-0.0700378
-0.0706482
-0.0717163
-0.0723267
-0.0735474
-0.0746155
-0.0753784
-0.0758362
-0.0764465
-0.0764465
-0.0762939
-0.0761414
-0.075531
-0.0747681
-0.0744629
-0.0737
-0.0732422
-0.0727844
-0.072937
-0.0735474
-0.0740051
-0.0743103
-0.075531
-0.0764465
-0.0778198
-0.0788879
-0.0799561
-0.0805664
-0.0814819
-0.0813293
-0.0817871
-0.0814819
-0.0808716
-0.0802612
-0.0794983
-0.0787354
-0.0776672
-0.0770569
-0.0764465
-0.0761414
-0.075531
-0.0752258
-0.0747681
-0.0752258
-0.0752258
-0.0752258
-0.0753784
-0.0753784
-0.0759888
-0.0761414
-0.0761414
-0.0759888
-0.0758362
-0.0758362
-0.0758362
-0.075531
-0.0759888
-0.0761414
-0.0761414
-0.0762939
-0.0767517
-0.0772095
-0.0782776
-0.0787354
-0.0793457
-0.0793457
-0.0798035
-0.0798035
-0.0796509
-0.0791931
-0.0782776
-0.078125
-0.0764465
-0.0750732
-0.0737
-0.0720215
-0.0708008
-0.0695801
-0.0688171
-0.0679016
-0.0669861
-0.0663757
-0.0660706
-0.0656128
-0.0653076
-0.0646973
-0.0642395
-0.0639343
-0.063324
-0.0627136
-0.0624084
-0.0611877
-0.06073
-0.0598145
-0.0593567
-0.0588989
-0.0585938
-0.0584412
-0.0588989
-0.0593567
-0.059967
-0.0605774
-0.0616455
-0.0624084
-0.0639343
-0.0643921
-0.065155
-0.0663757
-0.0666809
-0.0671387
-0.0674438
-0.0679016
-0.0680542
-0.0679016
-0.0683594
-0.0679016
-0.0682068
-0.068512
-0.0686646
-0.0692749
-0.0697327
-0.0701904
-0.0708008
-0.0720215
-0.0727844
-0.072937
-0.0730896
-0.0733948
-0.0733948
-0.0726318
-0.0727844
-0.0718689
-0.0712585
-0.0695801
-0.0686646
-0.067749
-0.0669861
-0.0665283
-0.0660706
-0.0662231
-0.0663757
-0.0668335
-0.0674438
-0.067749
-0.0686646
-0.0694275
-0.0697327
-0.0697327
-0.0701904
-0.0698853
-0.0695801
-0.0691223
-0.0688171
-0.0682068
-0.0671387
-0.0665283
-0.0662231
-0.065155
-0.0646973
-0.0645447
-0.0640869
-0.0640869
-0.0642395
-0.0643921
-0.0643921
-0.0646973
-0.0646973
-0.0639343
-0.0639343
-0.0634766
-0.0627136
-0.0621033
-0.0608826
-0.0601196
-0.0585938
-0.0576782
-0.0564575
-0.0552368
-0.0538635
-0.052948
-0.0518799
-0.0508118
-0.0495911
-0.0485229
-0.0466919
-0.0456238
-0.0440979
-0.0424194
-0.0405884
-0.0384521
-0.0366211
-0.0341797
-0.0318909
-0.0299072
-0.027771
-0.0253296
-0.0231934
-0.0213623
-0.0192261
-0.017395
-0.0160217
-0.0143433
-0.0138855
-0.01297
-0.01297
-0.0128174
-0.0126648
-0.0125122
-0.012207
-0.0125122
-0.012207
-0.0117493
-0.0108337
-0.010376
-0.00915527
-0.00808716
-0.00671387
-0.00579834
-0.00457764
-0.00350952
-0.00198364
-0.00152588
-0.000152588
0.000915527
0.00183105
0.00320435
0.00457764
0.00564575
0.00747681
0.00869751
0.0105286
0.0112915
0.0125122
0.0128174
0.01297
0.0125122
0.0109863
0.00900269
0.00610352
0.00228882
-0.00244141
-0.00808716
-0.0137329
-0.019989
-0.0265503
-0.0331116
-0.0401306
-0.0462341
-0.052948
-0.0592041
-0.0646973
-0.0701904
-0.0753784
-0.0798035
-0.0840759
-0.0880432
-0.0909424
-0.0944519
-0.0973511
-0.0996399
-0.102539
-0.10437
-0.106506
-0.108185
-0.109863
-0.110931
-0.112305
-0.112915
-0.11322
-0.11322
-0.11322
-0.112915
-0.112152
-0.111237
-0.110321
-0.109253
-0.108643
-0.108032
-0.107269
-0.106812
-0.106659
-0.106049
-0.106201
-0.105743
-0.106049
-0.105591
-0.10498
-0.104828
-0.10437
-0.103912
-0.102844
-0.102234
-0.101471
-0.100555
-0.0999451
-0.0993347
-0.0985718
-0.0984192
-0.098114
-0.0978088
-0.0982666
-0.0982666
-0.0984192
-0.098877
-0.0987244
-0.0987244
-0.0982666
-0.098114
-0.0979614
-0.0971985
-0.0968933
-0.0956726
-0.0947571
-0.0941467
-0.0932312
-0.0927734
-0.0921631
-0.0923157
-0.0930786
-0.0939941
-0.0953674
-0.0973511
-0.0999451
-0.101929
-0.104675
-0.106049
-0.107422
-0.108185
-0.108032
-0.107117
-0.104523
-0.100861
-0.0947571
-0.0874329
-0.0776672
-0.0657654
-0.0511169
-0.0337219
-0.0135803
0.00915527
0.0341797
0.0619507
0.0920105
0.124207
0.158539
0.195465
0.23407
0.274811
0.317078
0.361481
0.406952
0.452728
0.499268
0.545807
0.591583
0.636597
0.678711
0.718384
0.754547
0.786133
0.811768
0.831146
0.843811
0.847626
0.843048
0.829315
0.806427
0.774384
0.73349
0.683899
0.626526
0.561981
0.49057
0.413513
0.331879
0.247498
0.160828
0.0737
-0.0125122
-0.0968933
-0.177002
-0.252228
-0.320587
-0.381927
-0.434875
-0.478821
-0.513611
-0.540314
-0.557404
-0.566406
-0.567474
-0.561829
-0.549927
-0.533295
-0.51178
-0.487671
-0.462036
-0.434723
-0.40802
-0.381775
-0.35675
-0.33371
-0.311584
-0.292206
-0.274048
-0.258636
-0.244446
-0.232544
-0.222321
-0.21347
-0.205841
-0.19928
-0.194397
-0.190277
-0.186768
-0.184479
-0.18219
-0.181427
-0.180511
-0.180054
-0.180206
-0.180054
-0.180817
-0.180969
-0.180664
-0.180969
-0.180664
-0.179901
-0.179138
-0.177917
-0.176849
-0.174408
-0.172577
-0.169983
-0.167389
-0.164642
-0.161743
-0.158997
-0.15625
-0.154266
-0.15213
-0.150146
-0.149078
-0.147705
-0.146484
-0.145111
-0.144043
-0.142517
-0.140991
-0.139618
-0.137939
-0.136261
-0.134735
-0.133362
-0.132599
-0.131073
-0.130463
-0.129242
-0.127869
-0.127716
-0.126801
-0.126038
-0.12558
-0.124969
-0.124512
-0.123749
-0.123138
-0.122223
-0.121307
-0.120239
-0.119476
-0.117798
-0.11734
-0.115967
-0.115204
-0.113831
-0.113068
-0.112152
-0.111542
-0.111237
-0.110626
-0.110626
-0.110474
-0.110474
-0.110016
-0.109406
-0.1091
-0.108643
-0.106964
-0.105591
-0.10376
-0.101471
-0.0993347
-0.0967407
-0.0944519
-0.0920105
-0.0898743
-0.0878906
-0.0866699
-0.0857544
-0.0849915
-0.0840759
-0.0839233
-0.0834656
-0.083313
-0.083313
-0.0831604
-0.0827026
-0.0828552
-0.0823975
-0.0819397
-0.0816345
-0.0810242
-0.0802612
-0.0793457
-0.0782776
-0.0775146
-0.0765991
-0.0759888
-0.0750732
-0.0749207
-0.0741577
-0.0740051
-0.0737
-0.0732422
-0.0724792
-0.0718689
-0.070343
-0.0692749
-0.0674438
-0.0656128
-0.0636292
-0.06073
-0.058136
-0.0549316
-0.0520325
-0.0492859
-0.0463867
-0.0437927
-0.040741
-0.0384521
-0.0361633
-0.0341797
-0.032196
-0.0300598
-0.0279236
-0.0260925
-0.0242615
-0.022583
-0.020752
-0.0192261
-0.017395
-0.0161743
-0.0149536
-0.0132751
-0.0126648
-0.0119019
-0.0106812
-0.00961304
-0.0088501
-0.00808716
-0.00701904
-0.00610352
-0.00473022
-0.00335693
-0.00106812
0.0012207
0.00350952
0.00686646
0.0100708
0.0137329
0.0178528
0.0219727
0.0256348
0.0296021
0.0332642
0.0367737
0.0398254
0.0427246
