0.534668
0.534363
0.534973
0.534668
0.534668
0.534973
0.534973
0.534668
0.535583
0.534668
0.534363
0.534668
0.535278
0.534668
0.534973
0.534668
0.534668
0.535583
0.534973
0.534973
0.534668
0.534363
0.534668
0.534668
0.535278
0.534363
0.534973
0.534668
0.535278
0.534973
0.534363
0.534363
0.534973
0.534973
0.534363
0.534668
0.534668
0.534668
0.534668
0.534973
0.534973
0.534363
0.534668
0.534668
0.534668
0.534363
0.534668
0.535583
0.534973
0.534363
0.534973
0.534973
0.534363
0.534363
0.534973
0.534058
0.535583
0.534973
0.534363
0.534058
0.534973
0.535278
0.534668
0.534973
0.534363
0.534973
0.534058
0.534668
0.534973
0.534973
0.535278
0.534668
0.534973
0.534973
0.534363
0.534668
0.535583
0.534973
0.535278
0.535278
0.535278
0.535278
0.534668
0.535583
0.535583
0.534973
0.534668
0.535278
0.534973
0.534973
0.534973
0.535583
0.535278
0.534363
0.535583
0.534973
0.534363
0.534363
0.535278
0.534973
0.535889
0.536194
0.535278
0.535278
0.535278
0.534973
0.535583
0.535889
0.535583
0.535278
0.535278
0.535583
0.535583
0.534973
0.535278
0.535889
0.535278
0.535583
0.535583
0.535278
0.535583
0.535889
0.535583
0.535583
0.535278
0.535583
0.535583
0.535889
0.535583
0.536804
0.536194
0.536194
0.535889
0.535889
0.535583
0.535889
0.535889
0.535583
0.535889
0.536499
0.536804
0.536499
0.535583
0.535889
0.536499
0.536194
0.537109
0.536499
0.536194
0.536804
0.537109
0.536499
0.537109
0.536499
0.537415
0.536804
0.536194
0.536499
0.536499
0.536194
0.537109
0.536194
0.535889
0.536499
0.536194
0.536194
0.535889
0.535889
0.535889
0.535889
0.536499
0.535583
0.535889
0.536194
0.535583
0.534973
0.535278
0.534973
0.535889
0.535583
0.535278
0.535583
0.534973
0.535583
0.535278
0.534668
0.535278
0.534668
0.534973
0.534973
0.534668
0.534973
0.534973
0.534668
0.534363
0.534363
0.534363
0.534668
0.535278
0.534058
0.534363
0.534363
0.534058
0.534058
0.534058
0.534363
0.534668
0.534058
0.534058
0.534973
0.534363
0.534668
0.534058
0.533447
0.534058
0.534058
0.533142
0.533447
0.534668
0.533752
0.533447
0.534058
0.533142
0.533752
0.533752
0.533447
0.533752
0.534058
0.534363
0.533752
0.533142
0.533752
0.533752
0.534058
0.533752
0.534363
0.534363
0.533752
0.534668
0.534363
0.534058
0.534668
0.534668
0.534363
0.534973
0.535583
0.534973
0.535278
0.535278
0.535583
0.534668
0.535278
0.534973
0.535278
0.534668
0.534973
0.535278
0.535889
0.534973
0.534973
0.535278
0.535278
0.534668
0.534363
0.534973
0.534973
0.534973
0.534973
0.534973
0.535278
0.534363
0.534973
0.534973
0.534668
0.535278
0.535278
0.534363
0.534363
0.535583
0.534668
0.534668
0.534363
0.534363
0.534973
0.534668
0.534668
0.534668
0.534668
0.534668
0.534973
0.535278
0.534363
0.534363
0.534668
0.534973
0.534668
0.534058
0.534058
0.534668
0.534058
0.534668
0.534668
0.533752
0.534363
0.534668
0.534363
0.533752
0.534058
0.534363
0.534363
0.534363
0.533752
0.534363
0.533752
0.534058
0.534363
0.534058
0.533142
0.533447
0.533752
0.533447
0.533142
0.533142
0.533142
0.533752
0.534058
0.533142
0.533142
0.534058
0.532837
0.534363
0.534058
0.533752
0.533447
0.533752
0.533142
0.533447
0.533142
0.533142
0.533447
0.533447
0.533142
0.534058
0.532532
0.533447
0.532532
0.533447
0.532837
0.532532
0.533447
0.533142
0.533447
0.534058
0.533142
0.532837
0.532532
0.533142
0.533447
0.533142
0.533142
0.533447
0.534058
0.533752
0.533752
0.533752
0.533447
0.534058
0.533752
0.534363
0.534973
0.534058
0.534363
0.534058
0.534058
0.534058
0.534363
0.534363
0.534058
0.534363
0.533752
0.533752
0.533752
0.534363
0.534058
0.534058
0.534058
0.534058
0.534058
0.534668
0.534363
0.534058
0.534363
0.533752
0.533447
0.533447
0.534058
0.534058
0.534363
0.534363
0.533752
0.533752
0.534058
0.533752
0.534058
0.533752
0.532837
0.533447
0.533447
0.533752
0.534058
0.534058
0.533447
0.534363
0.533752
0.532837
0.533447
0.534363
0.533142
0.533447
0.533752
0.533447
0.534058
0.533752
0.534058
0.533142
0.533447
0.533752
0.533142
0.533752
0.534668
0.533142
0.533447
0.533142
0.533142
0.533447
0.534058
0.533752
0.533142
0.533447
0.534058
0.533447
0.533752
0.534058
0.533752
0.533447
0.533447
0.534363
0.533752
0.533752
0.534363
0.533752
0.533752
0.534668
0.533447
0.533142
0.533752
0.532532
0.532837
0.533447
0.533142
0.534668
0.534058
0.533142
0.533447
0.533752
0.533752
0.533752
0.533447
0.534363
0.534058
0.533142
0.533447
0.533752
0.534058
0.533752
0.533447
0.533142
0.532837
0.533752
0.533447
0.532837
0.533142
0.534363
0.534058
0.533447
0.533447
0.533752
0.533447
0.533752
0.534363
0.533447
0.533447
0.533752
0.533447
0.532837
0.533447
0.533752
0.532837
0.533447
0.533752
0.533142
0.534058
0.534058
0.533142
0.533447
0.533447
0.534058
0.534058
0.534058
0.534058
0.534058
0.533752
0.534363
0.533752
0.533752
0.534058
0.534058
0.533752
0.534668
0.534058
0.533752
0.533752
0.534668
0.534973
0.534363
0.534668
0.534058
0.534668
0.534668
0.534058
0.534668
0.534973
0.534363
0.534363
0.534363
0.534668
0.534058
0.534363
0.534973
0.534973
0.534363
0.534363
0.534363
0.533752
0.534363
0.534973
0.534363
0.534973
0.533752
0.534973
0.534973
0.534668
0.534058
0.534058
0.534058
0.534363
0.534973
0.534363
0.533447
0.534058
0.534363
0.534363
0.0289917
0.0296021
0.0289917
0.0286865
0.0283813
0.0283813
0.0292969
0.0286865
0.0296021
0.0302124
0.0305176
0.0317383
0.0326538
0.0332642
0.0344849
0.0360107
0.0372314
0.039978
0.0415039
0.043335
0.0460815
0.0494385
0.0531006
0.0558472
0.0604248
0.0662231
0.071106
0.0769043
0.083313
0.0897217
0.0982666
0.106812
0.115356
0.125427
0.137329
0.148621
0.161133
0.17395
0.188599
0.202942
0.219116
0.235901
0.254211
0.272217
0.291748
0.311279
0.331726
0.353699
0.376282
0.39978
0.423584
0.447998
0.474548
0.501099
0.52887
0.557556
0.587463
0.618591
0.651245
0.682678
0.715942
0.751343
0.787354
0.823975
0.861816
0.899963
0.939941
0.980225
1.02081
1.06293
1.10504
1.14807
1.19141
1.23352
1.27716
1.32141
1.36444
1.40778
1.4505
1.49323
1.53656
1.57867
1.62048
1.66229
1.70227
1.74286
1.78223
1.82007
1.85944
1.89545
1.93176
1.96747
2.00104
2.034
2.06696
2.09808
2.12769
2.15637
2.18384
2.21069
2.23572
2.25952
2.28271
2.30438
2.32483
2.34436
2.36176
2.37885
2.3941
2.40936
2.42249
2.43378
2.44476
2.45483
2.46429
2.47192
2.47803
2.48474
2.48901
2.49298
2.49573
2.49756
2.49878
2.49878
2.49847
2.49725
2.49512
2.49268
2.48871
2.48474
2.47955
2.47437
2.46796
2.46124
2.45392
2.44629
2.43774
2.4292
2.41974
2.41058
2.40021
2.38922
2.37671
2.36633
2.35443
2.34222
2.32941
2.31628
2.30286
2.28943
2.27539
2.26196
2.24792
2.23328
2.21771
2.20306
2.18842
2.17255
2.15698
2.14142
2.12524
2.10907
2.0929
2.07642
2.05994
2.04407
2.02637
2.00928
1.99402
1.97662
1.95984
1.94305
1.92566
1.90887
1.89209
1.875
1.8576
1.84021
1.82343
1.80634
1.78925
1.77216
1.75568
1.73737
1.72119
1.70471
1.68732
1.67084
1.65466
1.63757
1.6214
1.60522
1.58875
1.57257
1.5567
1.54053
1.52466
1.5094
1.49292
1.47858
1.4624
1.44684
1.43158
1.41693
1.40167
1.38855
1.37329
1.35864
1.34491
1.33057
1.31592
1.3028
1.28998
1.27594
1.26221
1.24939
1.23596
1.22375
1.20941
1.1972
1.185
1.17218
1.16028
1.14807
1.13617
1.12366
1.11145
1.10016
1.08887
1.07758
1.06598
1.05499
1.0434
1.03302
1.02234
1.01135
1.00067
0.990601
0.980225
0.970154
0.958557
0.948792
0.939331
0.929565
0.9198
0.909729
0.899963
0.890503
0.881348
0.871277
0.862122
0.852356
0.843811
0.834351
0.825195
0.816345
0.807495
0.79895
0.789795
0.78064
0.771484
0.763245
0.7547
0.746155
0.737
0.728149
0.71991
0.71106
0.701904
0.693665
0.684814
0.675659
0.667114
0.658264
0.649414
0.640869
0.631714
0.622864
0.614624
0.603943
0.594788
0.585938
0.575867
0.566711
0.556946
0.548401
0.53833
0.528259
0.518799
0.508118
0.498657
0.487976
0.478821
0.467834
0.457764
0.447083
0.436707
0.42572
0.414734
0.403748
0.393372
0.38208
0.371094
0.359497
0.349426
0.33844
0.327454
0.316467
0.305786
0.295105
0.284119
0.273438
0.262451
0.252075
0.242004
0.231628
0.221252
0.211792
0.201111
0.19165
0.181885
0.170593
0.162354
0.152588
0.143127
0.134277
0.125122
0.116272
0.108032
0.100403
0.0915527
0.0842285
0.0772095
0.0695801
0.0628662
0.0546265
0.0482178
0.0411987
0.0344849
0.0283813
0.0222778
0.0167847
0.0109863
0.00579834
0.0
-0.00457764
-0.0100708
-0.0140381
-0.0186157
-0.0228882
-0.0271606
-0.0308228
-0.0344849
-0.038147
-0.0405884
-0.0436401
-0.0469971
-0.0494385
-0.0518799
-0.0543213
-0.0564575
-0.0579834
-0.0610352
-0.0616455
-0.0637817
-0.0650024
-0.0656128
-0.0671387
-0.0683594
-0.0680542
-0.0683594
-0.0692749
-0.0695801
-0.0695801
-0.0701904
-0.0701904
-0.0701904
-0.0692749
-0.0692749
-0.0686646
-0.0680542
-0.0671387
-0.0671387
-0.0662231
-0.0656128
-0.0643921
-0.0637817
-0.0619507
-0.0613403
-0.0601196
-0.0582886
-0.0564575
-0.0558472
-0.0546265
-0.0537109
-0.0521851
-0.0509644
-0.0491333
-0.0476074
-0.0469971
-0.0454712
-0.0442505
-0.043335
-0.0415039
-0.0405884
-0.0384521
-0.0369263
-0.0360107
-0.0344849
-0.0326538
-0.0314331
-0.0302124
-0.0283813
-0.0280762
-0.0265503
-0.0259399
-0.0238037
-0.0234985
-0.0228882
-0.0210571
-0.0198364
-0.0186157
-0.0189209
-0.0183105
-0.0164795
-0.015564
-0.015564
-0.0137329
-0.0143433
-0.0137329
-0.0131226
-0.0125122
-0.012207
-0.012207
-0.0119019
-0.0119019
-0.0119019
-0.0119019
-0.0125122
-0.0125122
-0.0131226
-0.0137329
-0.0140381
-0.015564
-0.0161743
-0.0167847
-0.0177002
-0.0192261
-0.0201416
-0.0216675
-0.0234985
-0.0244141
-0.0256348
-0.0280762
-0.0299072
-0.0314331
-0.0335693
-0.0354004
-0.038147
-0.0396729
-0.0424194
-0.045166
-0.0463867
-0.0497437
-0.0521851
-0.0552368
-0.0582886
-0.06073
-0.0637817
-0.0665283
-0.0695801
-0.072937
-0.0747681
-0.078125
-0.0817871
-0.0854492
-0.0888062
-0.0909424
-0.0949097
-0.0985718
-0.101929
-0.105286
-0.108643
-0.112
-0.115051
-0.119019
-0.12207
-0.125427
-0.129395
-0.131531
-0.135498
-0.137939
-0.141296
-0.145264
-0.148621
-0.151672
-0.154724
-0.157776
-0.161438
-0.164795
-0.167847
-0.170898
-0.17395
-0.177307
-0.179443
-0.18219
-0.185852
-0.188599
-0.19104
-0.193787
-0.196533
-0.198364
-0.200806
-0.203247
-0.205688
-0.207825
-0.210266
-0.212402
-0.214233
-0.216675
-0.218201
-0.221252
-0.223389
-0.224915
-0.227051
-0.228271
-0.229797
-0.232239
-0.234375
-0.236206
-0.237427
-0.239258
-0.240479
-0.242004
-0.243835
-0.245361
-0.246277
-0.248718
-0.250244
-0.250854
-0.252686
-0.25238
-0.254517
-0.256042
-0.257263
-0.258789
-0.259399
-0.260315
-0.261841
-0.262756
-0.263367
-0.263977
-0.265503
-0.266113
-0.266418
-0.267639
-0.267639
-0.268555
-0.26947
-0.269775
-0.270691
-0.270996
-0.271606
-0.272217
-0.271912
-0.273132
-0.272522
-0.273438
-0.273743
-0.274048
-0.274658
-0.274353
-0.274353
-0.274658
-0.274658
-0.274353
-0.274658
-0.274658
-0.274353
-0.274353
-0.274048
-0.273438
-0.273438
-0.273743
-0.273743
-0.273132
-0.273438
-0.272522
-0.273132
-0.271912
-0.270996
-0.271301
-0.270691
-0.270691
-0.269775
-0.269775
-0.26947
-0.26947
-0.268555
-0.26825
-0.268555
-0.267334
-0.267944
-0.267029
-0.266418
-0.266113
-0.265198
-0.265503
-0.263367
-0.263672
-0.263062
-0.262756
-0.260925
-0.26062
-0.259705
-0.258484
-0.257874
-0.257263
-0.256348
-0.255737
-0.254517
-0.253601
-0.252991
-0.250549
-0.250549
-0.249023
-0.247498
-0.246277
-0.245667
-0.244141
-0.24231
-0.241394
-0.239868
-0.238342
-0.236816
-0.235291
-0.233765
-0.232239
-0.230713
-0.228577
-0.226135
-0.224915
-0.223083
-0.221558
-0.219116
-0.218506
-0.21637
-0.213928
-0.211792
-0.209961
-0.20813
-0.205688
-0.204163
-0.202637
-0.201416
-0.198669
-0.196533
-0.194397
-0.192566
-0.190735
-0.188904
-0.186462
-0.184326
-0.183105
-0.180359
-0.178223
-0.175781
-0.174255
-0.172424
-0.169983
-0.167847
-0.16571
-0.163879
-0.161133
-0.159302
-0.157776
-0.15564
-0.153809
-0.152588
-0.150452
-0.148315
-0.146179
-0.144958
-0.142517
-0.140686
-0.138855
-0.137329
-0.135193
-0.133057
-0.131836
-0.129395
-0.127563
-0.125732
-0.123291
-0.12207
-0.120544
-0.118713
-0.117188
-0.115662
-0.114441
-0.111389
-0.111084
-0.109253
-0.107117
-0.105591
-0.103455
-0.101929
-0.101013
-0.098877
-0.0973511
-0.0961304
-0.0939941
-0.0924683
-0.0912476
-0.0897217
-0.0881958
-0.0863647
-0.085144
-0.0839233
-0.0839233
-0.0820923
-0.0802612
-0.0793457
-0.0775146
-0.0769043
-0.0756836
-0.0747681
-0.072937
-0.0708008
-0.0704956
-0.0695801
-0.067749
-0.0671387
-0.065918
-0.0643921
-0.0628662
-0.0616455
-0.0610352
-0.0595093
-0.0585938
-0.0567627
-0.0552368
-0.0543213
-0.0534058
-0.0521851
-0.0509644
-0.0497437
-0.0482178
-0.0466919
-0.0448608
-0.0436401
-0.0421143
-0.0408936
-0.0396729
-0.0378418
-0.0363159
-0.0354004
-0.0341797
-0.0314331
-0.0302124
-0.0292969
-0.0274658
-0.0262451
-0.0247192
-0.0238037
-0.0222778
-0.0192261
-0.017395
-0.0164795
-0.0143433
-0.0125122
-0.010376
-0.00854492
-0.00732422
-0.00579834
-0.00335693
-0.00152588
-0.000610352
0.00213623
0.00335693
0.00610352
0.00793457
0.00976562
0.0119019
0.0140381
0.015564
0.0170898
0.0186157
0.0204468
0.0234985
0.0250244
0.0268555
0.0280762
0.0308228
0.0323486
0.0344849
0.0363159
0.038147
0.039978
0.0421143
0.0436401
0.045166
0.0473022
0.0482178
0.0506592
0.0524902
0.0540161
0.055542
0.057373
0.0601196
0.0616455
0.0631714
0.0643921
0.0662231
0.067749
0.0698853
0.0708008
0.072937
0.0738525
0.0753784
0.0769043
0.0778198
0.0802612
0.0805664
0.0817871
0.0839233
0.085144
0.0860596
0.0881958
0.0897217
0.0909424
0.0921631
0.0930786
0.09552
0.0964355
0.0976562
0.0982666
0.100403
0.101318
0.103149
0.103455
0.105591
0.106812
0.108337
0.109863
0.111694
0.113525
0.114136
0.115967
0.117798
0.119324
0.121155
0.122986
0.125122
0.127258
0.1297
0.131226
0.134277
0.136414
0.140381
0.142517
0.146484
0.150452
0.153503
0.158997
0.162659
0.168152
0.17334
0.180054
0.186462
0.193176
0.201111
0.210266
0.219727
0.228882
0.239258
0.25116
0.263062
0.275574
0.289001
0.30365
0.318604
0.335083
0.351868
0.369568
0.387878
0.407715
0.428467
0.449829
0.472412
0.496826
0.520935
0.54718
0.574341
0.602417
0.631714
0.662537
0.69458
0.728149
0.762634
0.797424
0.834045
0.873108
0.91217
0.950928
0.991821
1.03516
1.07758
1.1203
1.16394
1.20941
1.25366
1.29883
1.3443
1.39008
1.43524
1.48102
1.52496
1.57043
1.61377
1.65802
1.70166
1.745
1.78619
1.8277
1.86859
1.90796
1.94641
1.98486
2.02179
2.05627
2.09106
2.12433
2.15698
2.1875
2.2171
2.24548
2.27203
2.29858
2.323
2.34619
2.36847
2.39044
2.40906
2.42676
2.44354
2.45941
2.47406
2.48718
2.49939
2.51038
2.52014
2.52808
2.5354
2.54181
2.54791
2.55157
2.55493
2.55676
2.55737
2.5589
2.55768
2.55646
2.55432
2.55096
2.54669
2.54242
2.53754
2.53082
2.52441
2.51709
2.50977
2.50153
2.49237
2.48322
2.47284
2.46307
2.45148
2.44019
2.42859
2.41638
2.40417
2.39197
2.37885
2.36511
2.35168
2.33826
2.3233
2.31049
2.29584
2.28119
2.26624
2.2522
2.23602
2.22137
2.20612
2.18994
2.17377
2.15881
2.14325
2.12646
2.10999
2.09412
2.07825
2.06207
2.04498
2.02911
2.01294
1.99554
1.97906
1.9635
1.94702
1.93085
1.91345
1.89789
1.88141
1.86523
1.84875
1.83228
1.8158
1.79932
1.78284
1.76636
1.74988
1.73462
1.71814
1.70227
1.68671
1.67114
1.65405
1.6394
1.62415
1.60889
1.59363
1.57715
1.5625
1.54694
1.53259
1.51672
1.50177
1.48743
1.47278
1.45782
1.44348
1.42944
1.4151
1.40076
1.38702
1.37329
1.35956
1.34674
1.33331
1.31927
1.30676
1.29333
1.28021
1.2674
1.25458
1.24268
1.23047
1.21735
1.20483
1.19293
1.18073
1.16913
1.15753
1.14624
1.13495
1.12366
1.11298
1.10229
1.0907
1.08063
1.07025
1.06018
1.0495
1.03912
1.02997
1.01959
1.00983
1.00128
0.991516
0.982056
0.973206
0.964355
0.9552
0.946655
0.937805
0.930176
0.922241
0.913391
0.905457
0.897522
0.889893
0.881348
0.873108
0.866394
0.858765
0.85144
0.843811
0.836182
0.829163
0.821533
0.813599
0.80719
0.799255
0.792236
0.784302
0.776978
0.769958
0.762024
0.755005
0.747375
0.740051
0.732117
0.724182
0.716858
0.709229
0.701599
0.693054
0.684814
0.67627
0.66803
0.65979
0.65155
0.643005
0.63446
0.625916
0.61676
0.608215
0.59906
0.589294
0.580444
0.570679
0.562134
0.552063
0.541687
0.532532
0.523071
0.513306
0.50293
0.493469
0.483704
0.473022
0.463562
0.453186
0.444641
0.43457
0.4245
0.415649
0.405579
0.396729
0.386963
0.377502
0.368042
0.358582
0.349426
0.340576
0.331421
0.322571
0.314331
0.306396
0.297546
0.289001
0.281677
0.273438
0.266113
0.258484
0.25116
0.244141
0.237427
0.231018
0.224304
0.21759
0.211182
0.206299
0.2005
0.194702
0.190125
0.184326
0.179138
0.175476
0.170898
0.166931
0.162659
0.159302
0.15625
0.152893
0.150452
0.148315
0.144653
0.142822
0.141602
0.138855
0.137329
0.136108
0.134277
0.133667
0.132446
0.131531
0.13092
0.130615
0.130005
0.1297
0.129395
0.1297
0.13031
0.130615
0.130615
0.132141
0.132751
0.133972
0.134583
0.136108
0.137634
0.13855
0.140686
0.142212
0.143127
0.145264
0.14679
0.148621
0.150452
0.152283
0.153809
0.15564
0.15686
0.158997
0.161743
0.164185
0.166321
0.168762
0.170593
0.173035
0.174561
0.177002
0.179749
0.181274
0.183105
0.185547
0.187683
0.189514
0.192566
0.194397
0.196228
0.198059
0.200806
0.201721
0.203857
0.205383
0.20752
0.208435
0.209961
0.212097
0.213318
0.214844
0.215454
0.21759
0.218201
0.218506
0.220032
0.220032
0.221252
0.221252
0.222168
0.221863
0.222473
0.223083
0.222473
0.222473
0.221863
0.221558
0.221863
0.220642
0.219727
0.218201
0.21759
0.215149
0.213318
0.211792
0.209351
0.206909
0.203857
0.201416
0.197754
0.194092
0.190125
0.186157
0.181885
0.176392
0.171814
0.166016
0.159607
0.154419
0.147705
0.141296
0.135193
0.127563
0.119324
0.11322
0.105286
0.0982666
0.090332
0.0827026
0.0765991
0.0689697
0.0616455
0.0546265
0.0482178
0.0418091
0.0354004
0.0296021
0.0244141
0.0195312
0.0140381
0.00946045
0.00518799
0.000915527
-0.00335693
-0.00701904
-0.00976562
-0.0134277
-0.0161743
-0.0186157
-0.0219727
-0.0241089
-0.0256348
-0.0283813
-0.0305176
-0.0323486
-0.0341797
-0.0363159
-0.0372314
-0.0402832
-0.0418091
-0.043335
-0.0454712
-0.0473022
-0.0500488
-0.0509644
-0.0534058
-0.0552368
-0.0579834
-0.0595093
-0.0613403
-0.0634766
-0.0650024
-0.0674438
-0.0695801
-0.0717163
-0.0741577
-0.0756836
-0.0778198
-0.0802612
-0.0820923
-0.0839233
-0.0863647
-0.0878906
-0.0906372
-0.0927734
-0.09552
-0.0976562
-0.100098
-0.102234
-0.105286
-0.107727
-0.111084
-0.113831
-0.116272
-0.119019
-0.121765
-0.124817
-0.127563
-0.130005
-0.134583
-0.137329
-0.140381
-0.143127
-0.14679
-0.149841
-0.153198
-0.15625
-0.160217
-0.162964
-0.166321
-0.169678
-0.17334
-0.176086
-0.180054
-0.183105
-0.185852
-0.19043
-0.193176
-0.196533
-0.199585
-0.203552
-0.207214
-0.210571
-0.213013
-0.21759
-0.220337
-0.224304
-0.227051
-0.230713
-0.233765
-0.236206
-0.240173
-0.241394
-0.244141
-0.247803
-0.250549
-0.252991
-0.255127
-0.256348
-0.258789
-0.26062
-0.262146
-0.265198
-0.265808
-0.267944
-0.269165
-0.270691
-0.271912
-0.273132
-0.274048
-0.275574
-0.276184
-0.2771
-0.27771
-0.27832
-0.278931
-0.279846
-0.280151
-0.281677
-0.280762
-0.281677
-0.281982
-0.282288
-0.283203
-0.283508
-0.283813
-0.283203
-0.284729
-0.284119
-0.285034
-0.285339
-0.284424
-0.284729
-0.284729
-0.285645
-0.285339
-0.285645
-0.285645
-0.286255
-0.286255
-0.286865
-0.28717
-0.288391
-0.288696
-0.289612
-0.290527
-0.290833
-0.290833
-0.290833
-0.292358
-0.292969
-0.294189
-0.29541
-0.295105
-0.296021
-0.296631
-0.297241
-0.298462
-0.298767
-0.299988
-0.299683
-0.300903
-0.301819
-0.301819
-0.303955
-0.30426
-0.304871
-0.305481
-0.307007
-0.306091
-0.307312
-0.308533
-0.308838
-0.309448
-0.310059
-0.310669
-0.311279
-0.3125
-0.312195
-0.3125
-0.31311
-0.314026
-0.314026
-0.315552
-0.315857
-0.316162
-0.316772
-0.316467
-0.317383
-0.318604
-0.318298
-0.319824
-0.320129
-0.32074
-0.32135
-0.322266
-0.321655
-0.322266
-0.323181
-0.323792
-0.324097
-0.324097
-0.325012
-0.325317
-0.325928
-0.325928
-0.327148
-0.327148
-0.326538
-0.327148
-0.327148
-0.328064
-0.327454
-0.327759
-0.326843
-0.325928
-0.325012
-0.324707
-0.324707
-0.323792
-0.323181
-0.321655
-0.32196
-0.321045
-0.320129
-0.319214
-0.318604
-0.316467
-0.315857
-0.314331
-0.31311
-0.311584
-0.309753
-0.307617
-0.305481
-0.303955
-0.302429
-0.300598
-0.298767
-0.295715
-0.2948
-0.292969
-0.290222
-0.287781
-0.286865
-0.284424
-0.282288
-0.279846
-0.277405
-0.274963
-0.273438
-0.270081
-0.26947
-0.265808
-0.263672
-0.261841
-0.258789
-0.256042
-0.253906
-0.25177
-0.249023
-0.246887
-0.244446
-0.242004
-0.240479
-0.237122
-0.235901
-0.232849
-0.231323
-0.228577
-0.22644
-0.224609
-0.222778
-0.220947
-0.218201
-0.217285
-0.214844
-0.213623
-0.212097
-0.209961
-0.209351
-0.207825
-0.205688
-0.203857
-0.203857
-0.202332
-0.2005
-0.19928
-0.198364
-0.197449
-0.196533
-0.196228
-0.195007
-0.194397
-0.193481
-0.192261
-0.191345
-0.189514
-0.189209
-0.187988
-0.187378
-0.186768
-0.186157
-0.185547
-0.184937
-0.183716
-0.184021
-0.1828
-0.182495
-0.181885
-0.180664
-0.180359
-0.179443
-0.179138
-0.177917
-0.177307
-0.176392
-0.175476
-0.17395
-0.173035
-0.171509
-0.170288
-0.169373
-0.167542
-0.166931
-0.165405
-0.163879
-0.161743
-0.160217
-0.158691
-0.15625
-0.154419
-0.152283
-0.149841
-0.1474
-0.145264
-0.143433
-0.141602
-0.137939
-0.134888
-0.132141
-0.129395
-0.126648
-0.124207
-0.120544
-0.117188
-0.113831
-0.110168
-0.105896
-0.103149
-0.0991821
-0.0952148
-0.0912476
-0.0863647
-0.0817871
-0.0775146
-0.0735474
-0.067749
-0.0619507
-0.0564575
-0.0512695
-0.0445557
-0.038147
-0.0314331
-0.0253296
-0.0161743
-0.00793457
0.000305176
0.00976562
0.0186157
0.0286865
0.0402832
0.0518799
0.0643921
0.0759888
0.0891113
0.102844
0.118408
0.133667
0.149536
0.167236
0.184021
0.202332
0.222168
0.240784
0.260925
0.282593
0.304565
0.326233
0.349426
0.37323
0.397644
0.422058
0.446167
0.472107
0.498047
0.524597
0.550842
0.579224
0.606384
0.634155
0.662842
0.690918
0.719604
0.749207
0.779114
0.808716
0.839233
0.869141
0.899353
0.929565
0.960693
0.991211
1.02325
1.05377
1.08521
1.11542
1.14532
1.17615
1.20636
1.23627
1.26526
1.29456
1.32385
1.35162
1.3797
1.40717
1.43402
1.45966
1.4859
1.51093
1.53564
1.55914
1.58112
1.60461
1.62506
1.64612
1.66565
1.68488
1.70197
1.71906
1.73462
1.74988
1.76453
1.77765
1.79016
1.80084
1.81183
1.82129
1.82983
1.83838
1.84387
1.85089
1.85547
1.85974
1.8631
1.86584
1.86707
1.86951
1.8689
1.86798
1.86737
1.86432
1.86218
1.85913
1.85547
1.85089
1.84631
1.84113
1.83472
1.828
1.82159
1.81519
1.80573
1.79901
1.79016
1.78131
1.77277
1.76331
1.75385
1.74377
1.73279
1.72302
1.71265
1.70135
1.69037
1.67877
1.66779
1.6568
1.64429
1.63208
1.62079
1.60858
1.59729
1.58417
1.57288
1.56097
1.54877
1.53595
1.52435
1.51245
1.50055
1.48804
1.47614
1.46454
1.45264
1.44043
1.42883
1.41754
1.40594
1.39465
1.38306
1.37177
1.36108
1.3501
1.3385
1.32812
1.31683
1.30737
1.29639
1.28601
1.27655
1.26556
1.2558
1.24664
1.23688
1.22803
1.21857
1.20941
1.20087
1.19232
1.18378
1.17523
1.1673
1.16028
1.15082
1.14441
1.13678
1.12946
1.12152
1.11603
1.1084
1.10199
1.09436
1.08887
1.08185
1.07574
1.07056
1.06262
1.05774
1.05164
1.04645
1.04065
1.03516
1.02997
1.02539
1.01898
1.01471
1.00952
1.00525
1.00006
0.994873
0.990295
0.985413
0.98175
0.976868
0.97229
0.967712
0.96344
0.959778
0.9552
0.951233
0.94696
0.942688
0.939026
0.934448
0.930481
0.926819
0.923157
0.918579
0.915222
0.911865
0.908203
0.904846
0.900269
0.895996
0.892029
0.888672
0.884399
0.880432
0.87616
0.871887
0.868225
0.864563
0.860291
0.856323
0.851746
0.847473
0.843506
0.838928
0.834351
0.829773
0.826111
0.820923
0.81543
0.810852
0.806885
0.801086
0.796204
0.791626
0.786133
0.78125
0.775757
0.771484
0.765991
0.760498
0.75531
0.750732
0.74585
0.739746
0.734253
0.72876
0.722961
0.716553
0.71228
0.706787
0.700073
0.695496
0.689392
0.684509
0.678711
0.672913
0.667419
0.662537
0.657349
0.65155
0.646057
0.641479
0.636902
0.631714
0.625916
0.621948
0.617371
0.612793
0.608826
0.603943
0.59967
0.595093
0.591431
0.587463
0.584106
0.58075
0.577087
0.574646
0.571899
0.568848
0.566101
0.56366
0.561523
0.557861
0.555115
0.554504
0.551453
0.550232
0.547791
0.54718
0.545349
0.544128
0.542603
0.541077
0.540771
0.540771
0.539246
0.53833
0.53833
0.538635
0.53833
0.538025
0.539246
0.538635
0.539856
0.539246
0.540161
0.541077
0.541687
0.542297
0.543213
0.544739
0.545349
0.547485
0.548096
0.550232
0.549927
0.552673
0.554199
0.556335
0.558167
0.559998
0.562134
0.56366
0.566406
0.568542
0.570374
0.57251
0.574341
0.577698
0.579529
0.581665
0.585022
0.587158
0.5896
0.592957
0.595093
0.597534
0.600891
0.603333
0.606079
0.609131
0.612183
0.614319
0.61676
0.619507
0.622559
0.625
0.627441
0.629883
0.63324
0.635986
0.638123
0.639954
0.6427
0.645447
0.647888
0.65033
0.652771
0.654907
0.657349
0.65918
0.661316
0.663452
0.664673
0.667419
0.66803
0.670471
0.671692
0.672302
0.674133
0.675659
0.675964
0.676575
0.678101
0.678711
0.678711
0.679626
0.680847
0.680847
0.680847
0.680847
0.681763
0.680847
0.681152
0.681458
0.681458
0.681458
0.680847
0.680237
0.680542
0.679321
0.679016
0.678711
0.678406
0.677795
0.677185
0.67627
0.675049
0.674438
0.674133
0.672913
0.672607
0.671082
0.670471
0.669861
0.668945
0.667725
0.666504
0.665588
0.664673
0.662842
0.662231
0.660706
0.65979
0.658569
0.657349
0.655823
0.654297
0.654297
0.652161
0.651245
0.649719
0.647888
0.647278
0.645447
0.643616
0.64209
0.641479
0.639038
0.637817
0.636292
0.634766
0.633545
0.630493
0.629883
0.628967
0.628052
0.626221
0.625
0.623779
0.622253
0.620728
0.618896
0.617676
0.61615
0.614319
0.613098
0.611572
0.610352
0.608826
0.60791
0.606079
0.604553
0.603333
0.602417
0.600891
0.599365
0.59845
0.597229
0.596924
0.595093
0.594177
0.592957
0.591431
0.59082
0.5896
0.589294
0.588684
0.586548
0.585938
0.584717
0.583191
0.582275
0.58136
0.581055
0.580139
0.579529
0.578003
0.578003
0.576782
0.576477
0.575562
0.575256
0.574951
0.574036
0.573425
0.572205
0.571899
0.570679
0.570679
0.569458
0.569153
0.567932
0.567932
0.567627
0.566711
0.566406
0.565796
0.565186
0.56366
0.56366
0.562744
0.562439
0.562134
0.560608
0.559692
0.558777
0.558167
0.556335
0.555725
0.554504
0.553589
0.553284
0.551453
0.550537
0.548706
0.548096
0.545959
0.545044
0.544434
0.542603
0.541077
0.540771
0.538025
0.536804
0.534668
0.533752
0.531616
0.530396
0.529175
0.526123
0.525208
0.523376
0.52124
0.52063
0.518494
0.516663
0.515747
0.514221
0.51239
0.511169
0.509644
0.508118
0.507202
0.505676
0.504456
0.503235
0.501709
0.501099
0.499878
0.497742
0.497437
0.496216
0.4953
0.494385
0.493469
0.492554
0.491028
0.491638
0.491333
0.490112
0.489197
0.489502
0.488586
0.488892
0.487671
0.487671
0.487061
0.487366
0.487061
0.487366
0.487366
0.487366
0.487366
0.487366
0.487061
0.487671
0.487671
0.487976
0.487976
0.488892
0.489502
0.489807
0.490723
0.491638
0.491333
0.492554
0.493164
0.494385
0.495605
0.496216
0.497131
0.498352
0.499268
0.501404
0.501099
0.50293
0.50354
0.505981
0.506592
0.507812
0.509033
0.510254
0.510559
0.51178
0.513
0.513611
0.515442
0.516052
0.518188
0.518494
0.519409
0.520325
0.521545
0.522156
0.523682
0.524597
0.525818
0.526733
0.528259
0.529175
0.529785
0.531311
0.531311
0.533142
0.534363
0.535278
0.535889
0.537109
0.53772
0.53894
0.539856
0.540161
0.542297
0.543213
0.543823
0.544739
0.545349
0.54718
0.54718
0.548706
0.549011
0.550537
0.550842
0.552063
0.552979
0.553284
0.55481
0.555115
0.55603
0.557556
0.558472
0.558777
0.559692
0.560303
0.560608
0.560608
0.562744
0.562744
0.56366
0.564575
0.564575
0.565186
0.566101
0.566711
0.567017
0.567627
0.567322
0.568542
0.568542
0.569153
0.569458
0.568848
0.569763
0.569763
0.569763
0.569763
0.570374
0.570679
0.570374
0.570374
0.569763
0.570679
0.570068
0.570374
0.569763
0.569153
0.569458
0.568848
0.568237
0.568542
0.567932
0.567627
0.567322
0.567017
0.567017
0.565796
0.565796
0.56488
0.565796
0.56488
0.563965
0.563965
0.562744
0.562744
0.562439
0.561523
0.560608
0.560608
0.559387
0.558777
0.558472
0.557861
0.557861
0.556641
0.556335
0.555725
0.55603
0.55542
0.553894
0.554504
0.553894
0.552979
0.552673
0.550842
0.551453
0.551147
0.550842
0.549927
0.549316
0.549011
0.548096
0.547485
0.547485
0.546875
0.546265
0.546265
0.545654
0.545654
0.545044
0.545044
0.544128
0.544128
0.545349
0.543823
0.543518
0.543823
0.542908
0.543823
0.543213
0.543823
0.543823
0.543518
0.544739
0.545044
0.544739
0.545044
0.54718
0.54718
0.547791
0.548706
0.550232
0.551453
0.553284
0.55542
0.557251
0.559387
0.562134
0.56488
0.568542
0.57251
0.576477
0.579529
0.585327
0.590515
0.596313
0.602417
0.610352
0.617371
0.625916
0.63385
0.6427
0.653076
0.663757
0.674744
0.686646
0.699463
0.711365
0.725708
0.740356
0.7547
0.770874
0.786438
0.803833
0.822144
0.840454
0.860596
0.881042
0.902405
0.924072
0.946655
0.969238
0.993347
1.01685
1.04187
1.06934
1.09528
1.12122
1.14838
1.17737
1.20605
1.23444
1.26251
1.29211
1.32233
1.35284
1.38214
1.41327
1.44379
1.47369
1.50391
1.5332
1.56342
1.59424
1.62262
1.65161
1.67999
1.70776
1.73462
1.76239
1.78802
1.81366
1.83868
1.8631
1.88568
1.90918
1.92993
1.9519
1.97052
1.99005
2.00836
2.02576
2.04285
2.0575
2.07306
2.08649
2.099
2.11121
2.12189
2.13257
2.14172
2.15088
2.15759
2.16431
2.17041
2.1756
2.17987
2.18384
2.18628
2.1875
2.18933
2.18964
2.18994
2.18933
2.18658
2.18414
2.18079
2.17712
2.17377
2.16858
2.16248
2.15607
2.14996
2.14294
2.13562
2.12799
2.11945
2.1106
2.10114
2.09137
2.08099
2.07153
2.06055
2.04773
2.03705
2.02484
2.01324
2.00104
1.98792
1.9754
1.96228
1.94916
1.93542
1.92108
1.90765
1.8924
1.88019
1.86493
1.85089
1.83655
1.8219
1.80725
1.7923
1.77673
1.76208
1.74713
1.73187
1.71753
1.70227
1.68671
1.67114
1.6568
1.64124
1.62659
1.61163
1.59637
1.58173
1.56708
1.55151
1.53717
1.52252
1.50818
1.49292
1.47888
1.46484
1.4505
1.43646
1.42212
1.40808
1.39435
1.38062
1.36688
1.35345
1.33942
1.32721
1.31378
1.30096
1.28845
1.27563
1.26343
1.25031
1.23871
1.22681
1.21429
1.203
1.19141
1.1792
1.16821
1.15662
1.14624
1.13434
1.12427
1.11359
1.10291
1.09314
1.08337
1.0733
1.06384
1.05347
1.04462
1.03546
1.02661
1.01715
1.00891
1.00006
0.991821
0.982971
0.975037
0.966492
0.959167
0.951538
0.943909
0.936279
0.92926
0.922241
0.914307
0.907288
0.901794
0.89447
0.887146
0.880737
0.874023
0.867004
0.860901
0.855103
0.848694
0.841675
0.835876
0.830078
0.823364
0.817566
0.811157
0.805359
0.799561
0.793457
0.787354
0.780945
0.775452
0.769958
0.763855
0.758972
0.751648
0.74646
0.740356
0.734253
0.728149
0.722351
0.715942
0.709534
0.704041
0.697632
0.691528
0.68512
0.67749
0.671997
0.665588
0.658264
0.651855
0.644531
0.637512
0.631714
0.623779
0.617065
0.610046
0.602417
0.595398
0.587769
0.58075
0.57312
0.566406
0.557861
0.549927
0.542908
0.534668
0.527344
0.519714
0.512085
0.505371
0.498047
0.490417
0.482178
0.475159
0.467529
0.460815
0.453491
0.446167
0.439453
0.432739
0.425415
0.418396
0.411987
0.405884
0.39917
0.393066
0.386963
0.380859
0.375061
0.369568
0.364075
0.358582
0.353699
0.349121
0.343628
0.339355
0.334778
0.331116
0.326233
0.322876
0.319214
0.315247
0.312805
0.308838
0.306396
0.30365
0.300903
0.298157
0.296326
0.294189
0.292053
0.290222
0.289001
0.28656
0.286255
0.285339
0.284119
0.282898
0.282593
0.282593
0.281372
0.281677
0.281982
0.281372
0.281677
0.281982
0.282898
0.283508
0.284119
0.285339
0.285339
0.28656
0.287476
0.289307
0.290833
0.290833
0.293274
0.2948
0.296021
0.297241
0.299377
0.299988
0.302429
0.303955
0.305481
0.307617
0.309448
0.31189
0.313416
0.315247
0.317688
0.319519
0.32135
0.323486
0.325317
0.328064
0.328674
0.331726
0.333862
0.334778
0.337219
0.339966
0.342102
0.343323
0.346069
0.3479
0.349121
0.352173
0.353088
0.35553
0.35675
0.358582
0.360107
0.361328
0.363159
0.36499
0.365906
0.366821
0.368042
0.369568
0.370483
0.371399
0.372314
0.37262
0.37323
0.374146
0.374451
0.375061
0.375671
0.375977
0.375671
0.376282
0.375977
0.375977
0.375977
0.375671
0.374451
0.37384
0.373535
0.37262
0.371399
0.371094
0.369263
0.368347
0.367432
0.366516
0.36438
0.363159
0.361328
0.360413
0.357361
0.355835
0.354309
0.351562
0.349731
0.346985
0.345459
0.342712
0.339966
0.337219
0.334473
0.331726
0.329285
0.325928
0.323486
0.319824
0.317688
0.314331
0.31189
0.307617
0.304565
0.301514
0.298767
0.296021
0.292358
0.288696
0.28595
0.282593
0.279236
0.275574
0.273132
0.26825
0.265503
0.262451
0.259399
0.255737
0.252686
0.250244
0.245972
0.243225
0.240173
0.236511
0.233765
0.230103
0.227356
0.223389
0.220642
0.21698
0.213928
0.210571
0.207214
0.204468
0.2005
0.197754
0.193787
0.19104
0.187378
0.184021
0.180969
0.178223
0.175781
0.172119
0.169067
0.165405
0.163269
0.159912
0.155945
0.154724
0.151062
0.148315
0.145569
0.143127
0.139771
0.137024
0.133972
0.132141
0.129089
0.126953
0.124207
0.121155
0.119019
0.116882
0.114746
0.112305
0.108948
0.107422
0.104675
0.102844
0.101318
0.0979614
0.0958252
0.0942993
0.0921631
0.0900269
0.0881958
0.0866699
0.0845337
0.0827026
0.0808716
0.0799561
0.0787354
0.0772095
0.0759888
0.0738525
0.0726318
0.071106
0.0692749
0.0683594
0.0668335
0.0653076
0.0628662
0.0622559
0.0610352
0.0595093
0.0576782
0.057373
0.0558472
0.0543213
0.0540161
0.0527954
0.0509644
0.050354
0.0497437
0.0488281
0.0479126
0.0469971
0.0457764
0.0448608
0.0436401
0.0427246
0.0424194
0.0411987
0.0405884
0.039978
0.0393677
0.0387573
0.038147
0.0372314
0.0366211
0.0363159
0.0360107
0.0354004
0.0344849
0.0344849
0.0338745
0.0323486
0.0314331
0.0314331
0.0311279
0.0308228
0.0305176
0.0296021
0.0292969
0.0292969
0.0286865
0.0283813
0.0283813
0.027771
0.0283813
0.0271606
0.0271606
0.0271606
0.0265503
0.0268555
0.0259399
0.0262451
0.0256348
0.0259399
0.0259399
0.0253296
0.0250244
0.0250244
0.0250244
0.0244141
0.0247192
0.0244141
0.0244141
0.0244141
0.0244141
0.0256348
0.0250244
0.0256348
0.0256348
0.0247192
0.0253296
0.0262451
0.0265503
0.0262451
0.0256348
0.0265503
0.0271606
0.0271606
0.0268555
0.0271606
0.027771
0.0280762
0.0289917
0.0299072
0.0308228
0.0311279
0.0320435
0.0320435
0.0332642
0.0341797
0.03479
0.0354004
0.0354004
0.0363159
0.038147
0.0384521
0.0390625
0.039978
0.0408936
0.0411987
0.0424194
0.0436401
0.043335
0.0448608
0.0460815
0.0469971
0.0485229
0.0491333
0.0500488
0.0512695
0.0518799
0.0537109
0.0540161
0.0543213
0.055542
0.0570679
0.0576782
0.0588989
0.0595093
0.06073
0.0619507
0.0631714
0.0637817
0.0646973
0.0656128
0.0671387
0.0686646
0.0689697
0.0708008
0.0708008
0.072937
0.0735474
0.0744629
0.0762939
0.0765991
0.0784302
0.0784302
0.0799561
0.0802612
0.0811768
0.0827026
0.0836182
0.085144
0.0863647
0.0869751
0.0881958
0.0900269
0.0909424
0.0915527
0.0939941
0.0942993
0.0952148
0.0967407
0.0982666
0.0991821
0.0997925
0.101624
0.102844
0.10376
0.10498
0.106201
0.107117
0.108337
0.110474
0.111084
0.112305
0.113525
0.114441
0.115967
0.117188
0.117798
0.119019
0.120239
0.121155
0.12207
0.122986
0.123901
0.125427
0.126038
0.127258
0.128174
0.129395
0.130615
0.131531
0.132446
0.133362
0.134277
0.135803
0.137634
0.13855
0.139465
0.140381
0.142212
0.142822
0.143433
0.145264
0.146179
0.147705
0.147705
0.149231
0.150146
0.151062
0.153198
0.153503
0.154114
0.155945
0.156555
0.157471
0.158997
0.159607
0.161133
0.162659
0.163574
0.164185
0.1651
0.166321
0.167236
0.169067
0.170288
0.171204
0.172424
0.17334
0.174561
0.176086
0.177917
0.177612
0.179443
0.180969
0.18158
0.1828
0.184021
0.184021
0.185852
0.186462
0.188599
0.189514
0.19043
0.19104
0.191956
0.193481
0.194092
0.194702
0.196533
0.197144
0.198059
0.19928
0.19989
0.200806
0.202332
0.202942
0.204163
0.204163
0.205078
0.206604
0.207214
0.207214
0.207825
0.209351
0.210571
0.210876
0.211487
0.212097
0.212708
0.212402
0.214233
0.213623
0.214233
0.215149
0.216064
0.21637
0.217285
0.21759
0.21759
0.217896
0.218201
0.218506
0.219116
0.219421
0.220032
0.220642
0.220642
0.220947
0.221252
0.221252
0.221863
0.222473
0.222168
0.222473
0.222778
0.223389
0.223999
0.224609
0.223694
0.22522
0.223999
0.224609
0.22522
0.225525
0.22583
0.22583
0.22583
0.22644
0.226746
0.226746
0.227051
0.227661
0.227661
0.228577
0.228882
0.228882
0.230408
0.231018
0.231628
0.231628
0.232849
0.233765
0.234375
0.235291
0.236206
0.237427
0.238647
0.239868
0.241394
0.242615
0.245667
0.247192
0.249634
0.25238
0.255432
0.259094
0.262756
0.266113
0.270996
0.274658
0.281067
0.286255
0.292358
0.299072
0.306091
0.314026
0.32196
0.331726
0.340881
0.351257
0.362854
0.375061
0.388489
0.400696
0.415344
0.429688
0.447083
0.463257
0.481567
0.500183
0.519104
0.539856
0.561523
0.583496
0.606995
0.630798
0.654907
0.681458
0.707703
0.735168
0.763855
0.791931
0.822449
0.851746
0.883179
0.913696
0.945435
0.976562
1.00922
1.04126
1.07391
1.10657
1.13831
1.17188
1.20392
1.23627
1.2674
1.29913
1.33087
1.36108
1.39252
1.42242
1.45172
1.48132
1.5097
1.53687
1.56342
1.58936
1.61438
1.6391
1.6626
1.68579
1.70685
1.72791
1.74774
1.76666
1.78497
1.80176
1.81885
1.8338
1.84937
1.86279
1.87622
1.88721
1.8988
1.90918
1.91803
1.92719
1.93451
1.94153
1.94763
1.95312
1.9574
1.96106
1.9635
1.96625
1.96716
1.96869
1.96899
1.96869
1.96655
1.96564
1.9632
1.96106
1.9574
1.95404
1.94916
1.94519
1.93878
1.93298
1.92719
1.91986
1.91406
1.90704
1.89911
1.89087
1.88293
1.87439
1.86584
1.8573
1.84662
1.83807
1.828
1.81732
1.80725
1.79718
1.78619
1.77521
1.76422
1.75262
1.74103
1.73004
1.71875
1.70654
1.69464
1.68243
1.67023
1.65771
1.64673
1.63391
1.6214
1.60919
1.59637
1.58386
1.57196
1.55945
1.54602
1.53412
1.52069
1.50879
1.49506
1.48315
1.46973
1.4566
1.44501
1.43158
1.41937
1.40625
1.39465
1.38214
1.36963
1.35681
1.34491
1.3324
1.32111
1.30859
1.29669
1.2851
1.2738
1.26221
1.25
1.23932
1.22803
1.21613
1.20544
1.19507
1.18408
1.17279
1.16272
1.15234
1.14136
1.1322
1.12152
1.11206
1.10168
1.09283
1.08368
1.07361
1.06476
1.0556
1.04614
1.03729
1.02905
1.0199
1.01135
1.00342
0.994568
0.987244
0.978394
0.969543
0.963745
0.956421
0.948486
0.940857
0.934448
0.926819
0.92041
0.91217
0.906372
0.898743
0.892639
0.886536
0.879822
0.873718
0.867004
0.861511
0.854797
0.849304
0.842896
0.837402
0.832214
0.826416
0.820923
0.815735
0.810242
0.804749
0.800171
0.794678
0.7901
0.784912
0.780029
0.774536
0.769653
0.764465
0.759888
0.7547
0.749817
0.745544
0.740356
0.735779
0.730591
0.725708
0.720215
0.715942
0.71106
0.706482
0.700684
0.695801
0.690308
0.68512
0.679626
0.674744
0.668945
0.662842
0.657043
0.650635
0.644836
0.639343
0.63324
0.627136
0.621338
0.614624
0.608521
0.601807
0.595703
0.588074
0.58197
0.574646
0.568542
0.560913
0.554199
0.546875
0.540161
0.533447
0.525818
0.519409
0.51178
0.504761
0.497437
0.491028
0.484314
0.47699
0.470886
0.463562
0.456543
0.450439
0.443726
0.436401
0.430603
0.42511
0.418396
0.413208
0.406799
0.400696
0.394592
0.390015
0.385132
0.379944
0.375061
0.369873
0.365601
0.361633
0.356445
0.354004
0.348816
0.345764
0.343018
0.33905
0.335693
0.332947
0.330505
0.327759
0.325317
0.323792
0.321655
0.320129
0.317993
0.317383
0.315857
0.315247
0.314026
0.314026
0.313721
0.312805
0.313416
0.31311
0.312805
0.312805
0.314331
0.314026
0.314941
0.315857
0.316772
0.317993
0.318604
0.320129
0.32135
0.322876
0.325012
0.326843
0.329285
0.330811
0.332642
0.335083
0.336914
0.33844
0.340881
0.343323
0.344849
0.346375
0.349426
0.351257
0.353394
0.35553
0.357666
0.360718
0.361633
0.364685
0.366516
0.369263
0.370483
0.37262
0.375061
0.376892
0.379028
0.380859
0.38269
0.385132
0.386353
0.388184
0.39093
0.39093
0.393372
0.395203
0.396423
0.397949
0.39917
0.400696
0.401306
0.402832
0.404053
0.405273
0.405884
0.406799
0.407715
0.408936
0.408325
0.409241
0.409851
0.409546
0.410461
0.410461
0.410461
0.410461
0.410767
0.409851
0.409546
0.409241
0.40863
0.408325
0.408325
0.40802
0.406799
0.406189
0.405579
0.404053
0.403137
0.402222
0.400696
0.399475
0.397034
0.394592
0.393372
0.392151
0.389099
0.387878
0.385132
0.38269
0.379944
0.378113
0.375061
0.372925
0.370483
0.367737
0.36438
0.360718
0.358887
0.355225
0.351868
0.349121
0.345459
0.342102
0.338745
0.335388
0.332031
0.328369
0.325317
0.32196
0.317383
0.313416
0.310669
0.306702
0.303955
0.299377
0.29541
0.291748
0.28717
0.283813
0.280762
0.276184
0.272217
0.267944
0.264282
0.260925
0.256958
0.25238
0.248108
0.245056
0.241699
0.237122
0.233459
0.229492
0.225525
0.222473
0.218201
0.214844
0.210571
0.207214
0.202942
0.19989
0.195923
0.191956
0.187683
0.184631
0.180969
0.177612
0.17395
0.170288
0.166931
0.163574
0.160217
0.15686
0.153198
0.149536
0.14679
0.144653
0.140991
0.137024
0.134277
0.132141
0.128784
0.125427
0.122986
0.12085
0.117493
0.114746
0.11261
0.109558
0.106812
0.104675
0.102539
0.0997925
0.0976562
0.09552
0.0930786
0.0900269
0.088501
0.0860596
0.0839233
0.0820923
0.0805664
0.0793457
0.0772095
0.0759888
0.0738525
0.0720215
0.0701904
0.0692749
0.067749
0.0656128
0.0637817
0.0619507
0.0619507
0.0601196
0.0588989
0.0570679
0.0561523
0.0552368
0.0543213
0.0527954
0.0506592
0.0509644
0.0497437
0.0488281
0.0473022
0.0457764
0.045166
0.0448608
0.0436401
0.0427246
0.0421143
0.0408936
0.0411987
0.0390625
0.038147
0.0378418
0.0369263
0.0363159
0.0360107
0.03479
0.0338745
0.0338745
0.0323486
0.0320435
0.0314331
0.0317383
0.0305176
0.0299072
0.0299072
0.0296021
0.0286865
0.0292969
0.0283813
0.0283813
0.0280762
0.0283813
0.0280762
0.0286865
0.0280762
0.027771
0.0280762
0.0274658
0.0280762
0.0271606
0.027771
0.0274658
0.0265503
0.027771
0.027771
0.027771
0.027771
0.0286865
0.0286865
0.0283813
0.0289917
0.0286865
0.0299072
0.0289917
0.0302124
0.0299072
0.0302124
0.0302124
0.0308228
0.0305176
0.0320435
0.0314331
0.0314331
0.0317383
0.0326538
0.0332642
0.0332642
0.0341797
0.03479
0.0350952
0.0350952
0.0357056
0.0363159
0.0366211
0.0375366
0.0378418
0.0384521
0.0387573
0.039978
0.0405884
0.0408936
0.0418091
0.0427246
0.043335
0.0445557
0.045166
0.0466919
0.0469971
0.0473022
0.0476074
0.0488281
0.0506592
0.0506592
0.0512695
0.0527954
0.0531006
0.0540161
0.0549316
0.0558472
0.057373
0.057373
0.0585938
0.0588989
0.0604248
0.0619507
0.0631714
0.0637817
0.0646973
0.0656128
0.0671387
0.0680542
0.0689697
0.0704956
0.0717163
0.0723267
0.0735474
0.0744629
0.0762939
0.0775146
0.0784302
0.0796509
0.0808716
0.0808716
0.0820923
0.0839233
0.0848389
0.0857544
0.0872803
0.0878906
0.0897217
0.090332
0.0912476
0.0927734
0.0946045
0.0952148
0.0961304
0.0970459
0.0982666
0.100098
0.101624
0.102844
0.10376
0.105286
0.106812
0.107422
0.108337
0.109558
0.111084
0.11261
0.11322
0.114746
0.115051
0.117188
0.118713
0.118408
0.119629
0.12085
0.122375
0.122681
0.124207
0.124817
0.126038
0.127563
0.127869
0.1297
0.130615
0.13092
0.132446
0.133972
0.133972
0.136719
0.137024
0.138855
0.13916
0.140381
0.140686
0.142517
0.143433
0.143738
0.144348
0.145874
0.14679
0.147095
0.148315
0.149841
0.150452
0.151672
0.152588
0.153503
0.154724
0.155334
0.15686
0.157166
0.157471
0.159302
0.160522
0.161743
0.161743
0.162659
0.163574
0.164795
0.165405
0.166626
0.167236
0.168457
0.168457
0.169983
0.170898
0.172729
0.173035
0.17395
0.175171
0.176697
0.176392
0.177917
0.179443
0.179749
0.18219
0.181885
0.183105
0.184631
0.185547
0.185852
0.186157
0.188599
0.189209
0.189819
0.190735
0.191956
0.192871
0.194397
0.195923
0.195923
0.198059
0.197754
0.198975
0.19989
0.200806
0.202026
0.202332
0.203552
0.204773
0.205383
0.205688
0.207825
0.20813
0.209045
0.210876
0.212097
0.212708
0.213623
0.214539
0.214844
0.21637
0.217285
0.218201
0.219116
0.219421
0.221558
0.222168
0.222778
0.223389
0.224609
0.225525
0.226135
0.227051
0.228882
0.230103
0.231323
0.231628
0.232849
0.232849
0.23468
0.235291
0.235596
0.237122
0.237427
0.238953
0.239868
0.240479
0.241699
0.242004
0.243225
0.244141
0.244446
0.245972
0.246582
0.247803
0.248413
0.249634
0.250244
0.250244
0.25116
0.25238
0.252991
0.253601
0.253601
0.254517
0.254822
0.255432
0.256653
0.257263
0.257568
0.258179
0.259399
0.26001
0.26062
0.261841
0.261841
0.263062
0.263367
0.263672
0.264282
0.264893
0.264587
0.266113
0.266418
0.266418
0.267029
0.267639
0.268555
0.26825
0.26825
0.26886
0.269775
0.270081
0.270386
0.271606
0.271301
0.271912
0.272522
0.271912
0.272217
0.273438
0.272827
0.273743
0.273438
0.274658
0.274353
0.274658
0.274353
0.274963
0.275269
0.275879
0.276489
0.276184
0.276794
0.277405
0.278015
0.278625
0.279236
0.279236
0.280151
0.280457
0.279846
0.280151
0.281067
0.281982
0.281677
0.282898
0.283813
0.283813
0.282898
0.284424
0.28595
0.28656
0.28656
0.287476
0.288391
0.289307
0.289612
0.291138
0.291748
0.292358
0.294189
0.295715
0.296021
0.298157
0.299377
0.300598
0.301819
0.304565
0.305481
0.308228
0.310059
0.313416
0.315857
0.319214
0.323486
0.327148
0.331116
0.335388
0.341187
0.34729
0.353088
0.359802
0.367126
0.375366
0.383911
0.393372
0.403137
0.413208
0.424805
0.437317
0.450439
0.464783
0.479126
0.494995
0.512695
0.52948
0.547485
0.567627
0.588379
0.609131
0.632019
0.654907
0.678406
0.704041
0.730286
0.757141
0.783691
0.812683
0.84137
0.870361
0.901184
0.932312
0.963135
0.994263
1.02661
1.05804
1.09131
1.12274
1.1554
1.18744
1.2204
1.25244
1.28448
1.31622
1.34796
1.37939
1.40961
1.44073
1.46973
1.49872
1.52771
1.55579
1.58203
1.60797
1.63391
1.65894
1.68304
1.70593
1.72791
1.74988
1.76971
1.78925
1.80847
1.82617
1.84326
1.85852
1.87408
1.88843
1.90247
1.91406
1.92627
1.93665
1.94733
1.95618
1.96442
1.97205
1.97845
1.98425
1.98914
1.9931
1.99768
2.00012
2.00165
2.00378
2.00409
2.00439
2.00439
2.00348
2.00165
1.99951
1.99646
1.99402
1.99005
1.98578
1.9809
1.97693
1.97052
1.96472
1.95892
1.9516
1.94489
1.93726
1.92993
1.92261
1.91376
1.9046
1.89606
1.88751
1.87805
1.86798
1.85883
1.84967
1.83868
1.82922
1.81915
1.80817
1.79749
1.7868
1.77521
1.76453
1.75354
1.74103
1.73065
1.71906
1.70715
1.69495
1.68365
1.67206
1.65985
1.64795
1.63605
1.62445
1.61255
1.60095
1.58875
1.57654
1.56433
1.55273
1.54053
1.52893
1.51672
1.50421
1.492
1.48041
1.46851
1.45721
1.44562
1.43372
1.42181
1.41113
1.39893
1.38794
1.37604
1.36414
1.35345
1.34247
1.33118
1.3205
1.3092
1.29852
1.28723
1.27716
1.26678
1.2561
1.24603
1.23596
1.22559
1.2146
1.20544
1.19507
1.1853
1.17554
1.16638
1.15662
1.14777
1.13892
1.12976
1.12091
1.11176
1.10352
1.09589
1.08612
1.07849
1.07025
1.06232
1.05469
1.04706
1.03943
1.03149
1.02448
1.01715
1.00983
1.00372
0.997009
0.990295
0.983276
0.976868
0.970764
0.96405
0.958252
0.952454
0.94574
0.940247
0.933533
0.92926
0.923462
0.917053
0.912781
0.906067
0.900879
0.895691
0.891113
0.88623
0.880737
0.875244
0.870667
0.865784
0.861816
0.856628
0.85144
0.847168
0.842285
0.837708
0.833435
0.829163
0.823975
0.819397
0.81543
0.810852
0.80658
0.801697
0.797119
0.792542
0.787964
0.783386
0.779419
0.773926
0.769348
0.764465
0.760193
0.755615
0.749817
0.744629
0.739746
0.733948
0.729065
0.723877
0.717163
0.713196
0.706787
0.701294
0.694885
0.689392
0.682678
0.67688
0.670471
0.663452
0.657654
0.65155
0.644836
0.637817
0.631409
0.62439
0.617981
0.610962
0.603333
0.596313
0.5896
0.582275
0.576172
0.568848
0.562439
0.55481
0.547791
0.541992
0.534973
0.529175
0.522156
0.515747
0.509949
0.502625
0.497131
0.490723
0.484314
0.479431
0.473938
0.46875
0.463562
0.458374
0.453796
0.448914
0.444031
0.439148
0.435791
0.430908
0.428162
0.423889
0.420532
0.41687
0.413818
0.410767
0.407104
0.405579
0.402832
0.400391
0.39856
0.396118
0.394592
0.393066
0.392151
0.39093
0.389709
0.388794
0.388489
0.387878
0.386963
0.386658
0.386963
0.386658
0.386658
0.386963
0.387878
0.388184
0.388184
0.388794
0.390015
0.391235
0.391846
0.393066
0.394592
0.395813
0.396729
0.398254
0.39978
0.401306
0.402832
0.405273
0.406799
0.408325
0.410156
0.411682
0.413208
0.415649
0.417175
0.419006
0.420532
0.422363
0.423584
0.426025
0.428467
0.429993
0.431824
0.433044
0.435486
0.437012
0.438843
0.440063
0.441589
0.44342
0.444946
0.446167
0.447693
0.448914
0.450745
0.451965
0.453186
0.454407
0.455627
0.456238
0.456848
0.457764
0.458984
0.45929
0.459595
0.4599
0.46051
0.46051
0.46051
0.461731
0.461426
0.460815
0.460815
0.461426
0.460815
0.46051
0.4599
0.458679
0.457764
0.457458
0.455933
0.455322
0.454712
0.452881
0.451965
0.450439
0.448914
0.448303
0.446167
0.44342
0.441589
0.440369
0.438538
0.435791
0.433655
0.431519
0.429077
0.426636
0.4245
0.422363
0.419006
0.417786
0.415039
0.412292
0.409241
0.405579
0.403442
0.400696
0.397949
0.394592
0.392151
0.388794
0.384827
0.381775
0.378723
0.374756
0.371094
0.368347
0.364075
0.360107
0.35675
0.352783
0.350342
0.346375
0.343018
0.339355
0.334778
0.331726
0.327454
0.323792
0.320435
0.316467
0.312805
0.308228
0.303955
0.300293
0.296021
0.292664
0.288696
0.284119
0.280151
0.2771
0.272827
0.26886
0.265198
0.260315
0.256958
0.25238
0.249329
0.245056
0.241089
0.237427
0.233459
0.229187
0.225525
0.221558
0.218506
0.214233
0.210266
0.206604
0.202942
0.19928
0.196228
0.192566
0.189209
0.185852
0.18158
0.178833
0.174866
0.172119
0.168762
0.165405
0.161438
0.158386
0.155945
0.152588
0.149841
0.146484
0.143738
0.140686
0.138245
0.134277
0.132141
0.128784
0.126038
0.122986
0.120544
0.117798
0.115356
0.11322
0.109863
0.108337
0.10498
0.103149
0.100098
0.0982666
0.0958252
0.0939941
0.0912476
0.0894165
0.0869751
0.0854492
0.083313
0.0817871
0.0793457
0.0790405
0.0762939
0.0753784
0.0732422
0.0714111
0.0698853
0.0686646
0.0668335
0.0662231
0.0646973
0.0628662
0.0619507
0.06073
0.0592041
0.0592041
0.057373
0.0570679
0.0561523
0.0549316
0.0543213
0.0537109
0.0531006
0.0531006
0.0521851
0.0509644
0.0509644
0.0506592
0.0491333
0.0488281
0.0482178
0.0479126
0.0479126
0.0473022
0.0469971
0.0463867
0.0469971
0.0466919
0.0466919
0.0460815
0.0463867
0.0466919
0.0466919
0.0463867
0.0457764
0.0457764
0.0457764
0.0463867
0.0463867
0.0454712
0.0457764
0.0457764
0.0463867
0.0460815
0.0460815
0.0460815
0.0466919
0.0463867
0.0469971
0.0473022
0.0469971
0.0476074
0.0482178
0.0479126
0.0485229
0.0491333
0.0491333
0.0497437
0.0497437
0.0500488
0.0497437
0.0506592
0.0506592
0.0509644
0.0518799
0.0527954
0.0531006
0.0537109
0.0546265
0.0549316
0.0549316
0.055542
0.0558472
0.0570679
0.0567627
0.0576782
0.0579834
0.0588989
0.0601196
0.0604248
0.0613403
0.0613403
0.0622559
0.062561
0.0634766
0.0640869
0.0643921
0.065918
0.0668335
0.0671387
0.0692749
0.0686646
0.0698853
0.0708008
0.0717163
0.0723267
0.0732422
0.0732422
0.0744629
0.0756836
0.0769043
0.0769043
0.0778198
0.0784302
0.0796509
0.0799561
0.0805664
0.0808716
0.0827026
0.0830078
0.0839233
0.0842285
0.0860596
0.0869751
0.088501
0.0888062
0.0897217
0.0915527
0.0921631
0.0933838
0.0949097
0.0958252
0.0958252
0.0973511
0.0994873
0.0997925
0.101318
0.102844
0.10376
0.105896
0.106812
0.108032
0.109558
0.110168
0.111389
0.113831
0.115051
0.116577
0.117188
0.119019
0.120239
0.121765
0.123596
0.123901
0.125732
0.126953
0.128479
0.13031
0.131836
0.133057
0.134277
0.135803
0.137024
0.138855
0.139771
0.141602
0.142822
0.143433
0.145264
0.145874
0.147095
0.148315
0.150146
0.151367
0.152283
0.153503
0.155945
0.156555
0.157776
0.158997
0.160217
0.161133
0.163269
0.163879
0.165405
0.166626
0.167542
0.168457
0.169678
0.170898
0.172119
0.17334
0.17395
0.175171
0.176392
0.177917
0.179138
0.180054
0.180969
0.18219
0.183716
0.184631
0.186157
0.187073
0.188904
0.188904
0.190125
0.19165
0.192566
0.193787
0.195007
0.196533
0.197449
0.198975
0.19989
0.201111
0.202637
0.203247
0.204468
0.205383
0.20752
0.206909
0.207825
0.209656
0.210571
0.211487
0.212708
0.213928
0.214539
0.215759
0.21637
0.217285
0.218506
0.219421
0.220337
0.220642
0.222473
0.222778
0.223694
0.225525
0.22583
0.226135
0.227051
0.228577
0.229492
0.230103
0.230713
0.231934
0.232849
0.233459
0.23407
0.234985
0.234985
0.236206
0.237122
0.237732
0.238037
0.239258
0.240173
0.240784
0.240784
0.242004
0.242615
0.243835
0.24353
0.243835
0.245361
0.245361
0.245972
0.246582
0.247192
0.247498
0.247803
0.247803
0.248108
0.249023
0.249634
0.249329
0.250244
0.250244
0.250549
0.251465
0.25116
0.252075
0.252075
0.25238
0.252686
0.253601
0.252991
0.253906
0.253906
0.254211
0.254211
0.254517
0.255127
0.255432
0.255432
0.255432
0.256042
0.255737
0.256348
0.256653
0.256958
0.257568
0.257874
0.257874
0.257874
0.258179
0.258484
0.258789
0.259094
0.259705
0.26001
0.26062
0.26123
0.261536
0.261536
0.263062
0.263367
0.264282
0.264282
0.265198
0.266113
0.266724
0.266724
0.267944
0.269165
0.270386
0.271301
0.272522
0.273743
0.275269
0.276794
0.278015
0.279846
0.282593
0.284729
0.286865
0.289307
0.292358
0.295715
0.299377
0.303345
0.307922
0.31189
0.316772
0.322266
0.327759
0.335083
0.343018
0.350037
0.359192
0.367737
0.377808
0.388794
0.399475
0.412598
0.42511
0.439758
0.454407
0.470581
0.48584
0.503235
0.521851
0.541077
0.560608
0.581055
0.602722
0.625305
0.648499
0.672302
0.698242
0.722961
0.748901
0.775757
0.802307
0.830078
0.858765
0.887451
0.916138
0.945129
0.975037
1.00433
1.03546
1.06598
1.09558
1.12518
1.15448
1.18439
1.21307
1.24237
1.27136
1.30005
1.32843
1.35498
1.38275
1.40869
1.43433
1.45966
1.48438
1.50757
1.53046
1.55334
1.57501
1.59546
1.61499
1.63422
1.65253
1.66992
1.6861
1.70197
1.71692
1.73096
1.74408
1.7569
1.76819
1.77948
1.78986
1.79871
1.80695
1.81549
1.8222
1.82861
1.83441
1.83899
1.84174
1.8457
1.84814
1.84998
1.85211
1.85272
1.85303
1.85242
1.8512
1.84967
1.84784
1.84601
1.84265
1.83929
1.83533
1.83136
1.82617
1.82129
1.81519
1.8103
1.80389
1.79688
1.79016
1.78223
1.7746
1.76697
1.75934
1.74988
1.74164
1.73279
1.72333
1.71417
1.70502
1.69556
1.68549
1.6748
1.66565
1.65436
1.64429
1.63391
1.62292
1.61224
1.60095
1.59027
1.57867
1.56769
1.55609
1.5448
1.53381
1.52161
1.5094
1.49811
1.48651
1.47491
1.4624
1.45081
1.4389
1.427
1.4151
1.4032
1.39069
1.37878
1.36719
1.35406
1.34277
1.33087
1.31866
1.30737
1.29517
1.28326
1.27167
1.26007
1.24878
1.23718
1.22528
1.21368
1.203
1.1911
1.18042
1.16882
1.15875
1.14716
1.13617
1.12579
1.1145
1.10382
1.09436
1.08429
1.07391
1.06384
1.05377
1.0437
1.03394
1.02539
1.01562
1.00616
0.997009
0.98877
0.979614
0.970764
0.961914
0.953674
0.945129
0.9375
0.928955
0.921326
0.913696
0.905762
0.898743
0.891113
0.884399
0.87738
0.870361
0.863647
0.858459
0.85144
0.845642
0.839844
0.83313
0.827942
0.822754
0.815735
0.811462
0.806274
0.801392
0.795898
0.791016
0.785522
0.780945
0.776367
0.771484
0.766907
0.763245
0.757751
0.753479
0.749207
0.744324
0.740967
0.735779
0.730591
0.726929
0.722046
0.718384
0.712585
0.708923
0.704651
0.699463
0.695496
0.691223
0.686646
0.682678
0.678406
0.673523
0.66925
0.664978
0.660095
0.655212
0.65033
0.646057
0.640259
0.635681
0.630493
0.625916
0.620422
0.615845
0.610352
0.605774
0.598755
0.594177
0.588684
0.582886
0.577087
0.572205
0.565796
0.559998
0.55542
0.548096
0.541992
0.535889
0.52948
0.523682
0.517883
0.51178
0.505371
0.498962
0.493164
0.487061
0.480347
0.474243
0.468445
0.463257
0.457153
0.45105
0.445557
0.439148
0.433655
0.428467
0.422974
0.41748
0.412292
0.40741
0.402222
0.397339
0.392151
0.388794
0.384216
0.380554
0.375671
0.372925
0.368652
0.365906
0.362549
0.359497
0.357056
0.354614
0.352173
0.349426
0.348206
0.34668
0.344849
0.343628
0.341797
0.340881
0.339355
0.33905
0.337219
0.336914
0.336914
0.336304
0.337219
0.335693
0.336609
0.336304
0.337219
0.33783
0.33844
0.339355
0.339661
0.340576
0.341797
0.342712
0.344238
0.345154
0.346985
0.348511
0.350037
0.351562
0.354004
0.354919
0.358276
0.359497
0.361938
0.36438
0.366821
0.368958
0.371704
0.374146
0.377197
0.380554
0.382385
0.385437
0.389099
0.392151
0.394592
0.397339
0.401001
0.403748
0.406799
0.410156
0.413818
0.41687
0.420227
0.422974
0.427856
0.429993
0.433655
0.436707
0.439453
0.443115
0.445251
0.449219
0.451355
0.454102
0.456543
0.459595
0.462036
0.464783
0.466614
0.46936
0.470581
0.473022
0.475464
0.47699
0.4776
0.480042
0.481567
0.482178
0.484009
0.484619
0.484924
0.48584
0.48645
0.487366
0.487366
0.487671
0.487976
0.487061
0.486755
0.48584
0.485535
0.484924
0.484009
0.483704
0.482178
0.480652
0.480042
0.4776
0.47699
0.474548
0.473938
0.471497
0.469666
0.467834
0.464783
0.462952
0.460205
0.458069
0.456848
0.452881
0.450134
0.447083
0.444641
0.441895
0.438538
0.435791
0.432129
0.429993
0.426025
0.422363
0.419006
0.415344
0.412292
0.40863
0.404663
0.401917
0.398254
0.394592
0.390625
0.386963
0.382996
0.378113
0.375366
0.371704
0.368042
0.364075
0.361328
0.357666
0.353699
0.350037
0.34668
0.343323
0.338745
0.335083
0.332031
0.327759
0.325012
0.32135
0.317688
0.314026
0.311279
0.307922
0.30426
0.301208
0.297241
0.294189
0.290527
0.287781
0.284119
0.280762
0.27771
0.274963
0.271301
0.267944
0.265503
0.262146
0.258789
0.255127
0.25177
0.249329
0.245972
0.243225
0.240784
0.237427
0.23468
0.231628
0.229492
0.22583
0.223389
0.220947
0.21759
0.215149
0.212097
0.209961
0.206299
0.204773
0.202026
0.198669
0.196533
0.193787
0.191956
0.189209
0.186768
0.184326
0.18219
0.180359
0.178528
0.176697
0.17395
0.172424
0.169983
0.167847
0.166321
0.1651
0.162048
0.160522
0.159607
0.157776
0.155334
0.154724
0.152893
0.151367
0.149841
0.148926
0.1474
0.146484
0.144653
0.143433
0.142517
0.141907
0.140686
0.139771
0.138855
0.137939
0.137024
0.135803
0.134888
0.133667
0.133057
0.132446
0.132141
0.131531
0.13092
0.13031
0.1297
0.1297
0.129395
0.129395
0.128784
0.128784
0.128479
0.127563
0.127563
0.127258
0.127869
0.127258
0.126953
0.126038
0.126953
0.126038
0.126343
0.126648
0.126343
0.126648
0.126648
0.126038
0.126343
0.127258
0.126343
0.126038
0.126953
0.127258
0.126953
0.126038
0.126648
0.126953
0.126953
0.127258
0.127869
0.127563
0.128174
0.128479
0.128479
0.129395
0.130005
0.1297
0.129395
0.130615
0.13092
0.131836
0.131836
0.132751
0.132751
0.132446
0.133667
0.133667
0.134277
0.134888
0.135193
0.135193
0.136719
0.136108
0.137634
0.138855
0.140076
0.140076
0.140991
0.141907
0.142822
0.143433
0.144043
0.145569
0.14679
0.14679
0.1474
0.148621
0.149231
0.150452
0.151367
0.151672
0.152588
0.153809
0.154419
0.155945
0.15686
0.157471
0.158997
0.159912
0.160522
0.161438
0.163574
0.163574
0.164795
0.166016
0.167542
0.167542
0.169373
0.169983
0.171509
0.172424
0.173035
0.174561
0.175781
0.177307
0.178223
0.179138
0.180054
0.181885
0.1828
0.184326
0.184937
0.186157
0.187073
0.187683
0.189514
0.19043
0.19104
0.191956
0.193176
0.194092
0.195618
0.196228
0.197449
0.198669
0.19989
0.200806
0.201721
0.202332
0.203552
0.204773
0.205994
0.20752
0.20813
0.208435
0.209961
0.210571
0.210876
0.212708
0.212708
0.214539
0.214844
0.215454
0.217285
0.218201
0.218201
0.220337
0.220947
0.221252
0.223083
0.223999
0.22522
0.226135
0.226746
0.227051
0.228271
0.229797
0.230103
0.231323
0.231628
0.232544
0.233154
0.233459
0.23407
0.234985
0.235901
0.236206
0.237122
0.238037
0.238342
0.238953
0.240173
0.240173
0.241394
0.242004
0.24231
0.242615
0.24353
0.244141
0.244446
0.244446
0.245361
0.245361
0.245667
0.246582
0.246582
0.246887
0.247803
0.247498
0.248108
0.248718
0.248718
0.249634
0.249329
0.249329
0.249939
0.250854
0.250854
0.250549
0.25116
0.251465
0.25177
0.252075
0.252686
0.253296
0.253296
0.252991
0.254211
0.253601
0.254517
0.255127
0.256042
0.256042
0.256348
0.256958
0.257568
0.257874
0.257263
0.258179
0.259094
0.259705
0.26062
0.261536
0.262451
0.263367
0.263977
0.265503
0.266113
0.268555
0.270386
0.270386
0.273438
0.274658
0.277405
0.279236
0.281982
0.284729
0.287781
0.291138
0.295105
0.299377
0.30365
0.309143
0.314636
0.32074
0.327148
0.335083
0.342712
0.350647
0.360107
0.370178
0.380859
0.392151
0.403748
0.41687
0.430908
0.445251
0.4599
0.476379
0.493774
0.511475
0.530701
0.550537
0.571289
0.592651
0.61554
0.638123
0.661926
0.687561
0.711975
0.738525
0.765076
0.792847
0.820312
0.848083
0.876465
0.905457
0.934143
0.963745
0.992432
1.02234
1.05194
1.08276
1.11145
1.14136
1.17035
1.19934
1.22833
1.2558
1.28418
1.31226
1.3382
1.36505
1.39069
1.41632
1.44043
1.46393
1.48712
1.5097
1.53168
1.55212
1.57257
1.59149
1.61072
1.62781
1.64459
1.66107
1.67664
1.69067
1.70471
1.71692
1.72882
1.74042
1.75018
1.76025
1.76849
1.77643
1.78436
1.79138
1.79718
1.80237
1.80725
1.81
1.81427
1.81824
1.81946
1.82037
1.8219
1.8219
1.8219
1.82129
1.81885
1.81763
1.81549
1.81244
1.80939
1.80573
1.80145
1.79718
1.7926
1.78741
1.78131
1.77551
1.7691
1.7627
1.75568
1.74896
1.74133
1.73431
1.72607
1.71753
1.70959
1.70074
1.69281
1.68274
1.67419
1.66443
1.65558
1.64581
1.63513
1.62598
1.6156
1.60583
1.59576
1.58478
1.57379
1.56311
1.55304
1.54175
1.53137
1.51978
1.50909
1.49872
1.48651
1.47552
1.46332
1.45233
1.44165
1.43066
1.41846
1.40717
1.39648
1.38489
1.37451
1.36169
1.35132
1.34003
1.32965
1.31775
1.30737
1.29608
1.28448
1.27319
1.26251
1.25122
1.24084
1.22986
1.21948
1.2088
1.19751
1.18683
1.17645
1.16638
1.1557
1.14563
1.13678
1.12579
1.11633
1.10596
1.09619
1.08704
1.07849
1.06873
1.05927
1.05011
1.04187
1.03271
1.02386
1.01593
1.00647
0.998535
0.990295
0.982361
0.973816
0.966187
0.958252
0.951233
0.943298
0.935974
0.92926
0.922241
0.914917
0.908508
0.901184
0.894165
0.888062
0.881042
0.874023
0.86853
0.862122
0.856018
0.849915
0.845032
0.838013
0.83313
0.827942
0.822449
0.81665
0.811462
0.805969
0.801086
0.796204
0.791016
0.786133
0.78125
0.776672
0.7724
0.767822
0.763245
0.758362
0.753784
0.749817
0.745239
0.740662
0.736694
0.733337
0.729065
0.724182
0.720215
0.715942
0.71167
0.706787
0.703735
0.698242
0.693359
0.689392
0.68512
0.680847
0.675354
0.670471
0.664978
0.661011
0.656128
0.65155
0.646667
0.640564
0.635071
0.630188
0.624084
0.619507
0.613403
0.608215
0.602722
0.596924
0.59082
0.584412
0.578308
0.571899
0.566101
0.559692
0.553589
0.54718
0.540771
0.534058
0.527344
0.52124
0.515137
0.508118
0.502014
0.4953
0.489197
0.482483
0.475769
0.469666
0.463257
0.457153
0.450745
0.444031
0.437622
0.432129
0.426331
0.420532
0.414734
0.409241
0.404053
0.398254
0.393677
0.389404
0.383911
0.379333
0.374451
0.369568
0.365601
0.361938
0.358276
0.354004
0.350952
0.346985
0.343933
0.340271
0.338135
0.335999
0.333252
0.330811
0.328064
0.326233
0.324097
0.322876
0.321655
0.319824
0.318604
0.317383
0.316772
0.316162
0.314941
0.314331
0.314026
0.313721
0.314026
0.314026
0.314331
0.314026
0.314941
0.316162
0.316162
0.317383
0.318298
0.319519
0.321045
0.32196
0.323486
0.324402
0.326233
0.327759
0.329285
0.330505
0.332947
0.334473
0.336609
0.33844
0.340576
0.342407
0.344238
0.346375
0.348816
0.350647
0.353699
0.354919
0.357056
0.359497
0.361633
0.36377
0.365601
0.368042
0.369263
0.371704
0.37384
0.376282
0.378113
0.379944
0.38147
0.383301
0.384521
0.386658
0.388489
0.389099
0.391235
0.393066
0.394287
0.395508
0.396423
0.397339
0.398254
0.398865
0.39978
0.400391
0.400696
0.401001
0.400696
0.401611
0.401611
0.401611
0.401001
0.400391
0.400391
0.400391
0.39978
0.398865
0.397949
0.396729
0.395508
0.394592
0.392456
0.391541
0.389709
0.388794
0.386658
0.385132
0.383301
0.38147
0.379333
0.377197
0.374451
0.371704
0.369873
0.367126
0.36499
0.362244
0.359192
0.35614
0.354004
0.351257
0.3479
0.345154
0.342407
0.338745
0.334778
0.332642
0.328369
0.325623
0.322571
0.318909
0.315247
0.31189
0.309143
0.304871
0.302734
0.298767
0.295105
0.291443
0.286865
0.283508
0.279541
0.275879
0.271301
0.267334
0.263672
0.26001
0.256348
0.252075
0.247803
0.244446
0.241089
0.236511
0.232544
0.229492
0.224915
0.220947
0.216675
0.213623
0.208435
0.205078
0.202026
0.198059
0.194397
0.190125
0.185852
0.1828
0.178833
0.175476
0.171204
0.167847
0.16449
0.160828
0.157776
0.154114
0.151062
0.147705
0.143127
0.140686
0.137329
0.134277
0.13092
0.127869
0.125122
0.12146
0.119019
0.115967
0.112915
0.110168
0.106506
0.10437
0.101929
0.098877
0.0964355
0.0942993
0.0912476
0.0894165
0.0866699
0.0842285
0.0823975
0.0799561
0.0787354
0.0762939
0.0741577
0.0723267
0.0701904
0.067749
0.065918
0.0640869
0.062561
0.0610352
0.0598145
0.0579834
0.0561523
0.0543213
0.0534058
0.0518799
0.0500488
0.0482178
0.0476074
0.0460815
0.0454712
0.0439453
0.0424194
0.0424194
0.0405884
0.0396729
0.0387573
0.0384521
0.0372314
0.0363159
0.0354004
0.03479
0.0344849
0.0332642
0.0335693
0.032959
0.0323486
0.0314331
0.0311279
0.0311279
0.0302124
0.0305176
0.0302124
0.0292969
0.0296021
0.0289917
0.0296021
0.027771
0.027771
0.0283813
0.0274658
0.0280762
0.0274658
0.027771
0.027771
0.0280762
0.0280762
0.0283813
0.0280762
0.0283813
0.0286865
0.0283813
0.0283813
0.0289917
0.0283813
0.0299072
0.0292969
0.0302124
0.0302124
0.0311279
0.0317383
0.0317383
0.0323486
0.0323486
0.032959
0.0335693
0.0344849
0.03479
0.0354004
0.0366211
0.0363159
0.0372314
0.0366211
0.0384521
0.0390625
0.0396729
0.0396729
0.0405884
0.0418091
0.0421143
0.0421143
0.043335
0.0436401
0.0442505
0.0457764
0.0457764
0.0466919
0.0482178
0.0485229
0.0491333
0.0494385
0.0506592
0.0518799
0.0524902
0.0531006
0.0537109
0.0537109
0.0552368
0.0561523
0.0561523
0.0576782
0.0582886
0.0585938
0.0604248
0.0610352
0.0613403
0.062561
0.0640869
0.0646973
0.0650024
0.0662231
0.0671387
0.0671387
0.0680542
0.0695801
0.0695801
0.071106
0.0720215
0.0735474
0.0735474
0.0744629
0.0756836
0.0765991
0.0778198
0.0787354
0.0796509
0.0790405
0.0802612
0.0814819
0.0820923
0.0830078
0.083313
0.0845337
0.0857544
0.0866699
0.0869751
0.088501
0.0891113
0.0900269
0.0906372
0.0915527
0.0927734
0.0942993
0.09552
0.0964355
0.0976562
0.0991821
0.100403
0.101624
0.102539
0.104065
0.104675
0.105896
0.106812
0.108643
0.109253
0.109863
0.111389
0.111694
0.113525
0.114441
0.115051
0.116577
0.117493
0.118713
0.119324
0.121155
0.122681
0.122681
0.124512
0.124817
0.126038
0.126648
0.128784
0.129395
0.13031
0.131836
0.132751
0.133972
0.135193
0.136108
0.136719
0.13855
0.13916
0.141296
0.141907
0.143738
0.144653
0.146179
0.147095
0.148315
0.149231
0.150452
0.151978
0.153198
0.154419
0.155334
0.15625
0.158081
0.158691
0.159607
0.161133
0.162048
0.163879
0.16571
0.166016
0.167236
0.168762
0.169373
0.170898
0.172119
0.17334
0.17395
0.176086
0.177307
0.178223
0.179138
0.180054
0.181274
0.1828
0.183411
0.184631
0.186768
0.186462
0.188293
0.189514
0.190735
0.19165
0.192566
0.193481
0.194702
0.195618
0.196533
0.197144
0.198364
0.200195
0.201111
0.201721
0.202026
0.203552
0.203857
0.204773
0.206604
0.207214
0.207825
0.209656
0.210266
0.210876
0.212402
0.213013
0.213318
0.214233
0.215454
0.21637
0.21759
0.218506
0.219421
0.220642
0.220337
0.221863
0.222473
0.224304
0.224609
0.224304
0.22644
0.227051
0.228882
0.228882
0.228882
0.230103
0.231018
0.231323
0.231934
0.232544
0.233459
0.23468
0.23468
0.235291
0.236206
0.236206
0.236816
0.238037
0.238037
0.238647
0.239563
0.240479
0.241089
0.241089
0.242004
0.242004
0.24292
0.242615
0.244141
0.244751
0.244446
0.245361
0.245972
0.246887
0.246887
0.247803
0.247803
0.248108
0.249329
0.249329
0.250854
0.250549
0.25177
0.25238
0.252991
0.253601
0.254517
0.254822
0.255737
0.256042
0.257263
0.258484
0.259399
0.260315
0.26062
0.261536
0.263672
0.265503
0.267334
0.26886
0.270081
0.272522
0.274963
0.27832
0.280151
0.284424
0.286865
0.290833
0.295715
0.300903
0.306091
0.312195
0.319214
0.325623
0.334167
0.341797
0.352173
0.362549
0.37384
0.385437
0.39856
0.413208
0.426941
0.44281
0.459595
0.476685
0.494995
0.514221
0.535583
0.556946
0.579529
0.602417
0.627136
0.652466
0.679321
0.707092
0.735168
0.76355
0.793762
0.82428
0.855408
0.887146
0.919495
0.951843
0.985413
1.01868
1.05194
1.08612
1.11938
1.15356
1.18683
1.22101
1.25519
1.28784
1.32111
1.35315
1.38611
1.41754
1.44806
1.47919
1.50909
1.53839
1.56647
1.59454
1.62109
1.64703
1.67206
1.69586
1.71936
1.74194
1.76422
1.78436
1.8042
1.82251
1.84113
1.85822
1.87378
1.88843
1.90338
1.91589
1.92871
1.94061
1.95129
1.96167
1.97052
1.97876
1.98608
1.9928
1.99829
2.00287
2.00714
2.01111
2.01324
2.0163
2.01721
2.01874
2.01965
2.01904
2.01813
2.0166
2.01477
2.01263
2.00958
2.00592
2.00256
1.99829
1.9931
1.98792
1.98273
1.97632
1.96991
1.9635
1.95618
1.94885
1.94122
1.93268
1.92505
1.91711
1.90765
1.89941
1.89026
1.88049
1.87134
1.86188
1.8515
1.84174
1.83136
1.82098
1.81061
1.79932
1.78955
1.77856
1.76819
1.7569
1.74591
1.73523
1.72394
1.71387
1.70258
1.69067
1.67938
1.6684
1.65741
1.64581
1.63483
1.62384
1.61224
1.60126
1.58997
1.57898
1.56769
1.55579
1.5451
1.53412
1.52252
1.51276
1.50146
1.49139
1.48041
1.47003
1.45905
1.44897
1.4389
1.42822
1.41815
1.40778
1.3974
1.38763
1.37756
1.3678
1.35834
1.34857
1.33911
1.32965
1.31958
1.31104
1.30219
1.29272
1.28387
1.27563
1.26617
1.25763
1.24908
1.24115
1.23322
1.22498
1.21674
1.20911
1.20087
1.19293
1.18561
1.17859
1.17126
1.16364
1.15662
1.1499
1.14349
1.13647
1.12885
1.12335
1.11664
1.10992
1.10352
1.09741
1.09161
1.08582
1.0791
1.0733
1.06812
1.06232
1.05682
1.05011
1.04523
1.03943
1.03424
1.02936
1.02386
1.01868
1.01349
1.00922
1.00403
0.999756
0.995178
0.98999
0.985718
0.981445
0.977173
0.972595
0.968018
0.963135
0.959473
0.9552
0.950623
0.947266
0.942383
0.938416
0.933838
0.930481
0.927124
0.922852
0.919189
0.915222
0.910645
0.906982
0.903015
0.898438
0.894165
0.890503
0.885925
0.881653
0.87738
0.873108
0.86853
0.864563
0.859985
0.855103
0.849915
0.845947
0.841064
0.835876
0.830383
0.8255
0.820007
0.814819
0.809631
0.803223
0.79834
0.791931
0.785522
0.779114
0.773621
0.767212
0.760193
0.753479
0.74707
0.740051
0.732727
0.726318
0.718689
0.71167
0.704346
0.697327
0.690308
0.682678
0.675049
0.667725
0.6604
0.651855
0.644836
0.636597
0.628662
0.620728
0.613403
0.605774
0.598145
0.591125
0.583191
0.575562
0.568542
0.561218
0.553284
0.547485
0.539551
0.532532
0.526123
0.518799
0.512695
0.505066
0.499268
0.493469
0.486145
0.481262
0.475159
0.470581
0.464172
0.458374
0.454712
0.449219
0.444336
0.439758
0.436096
0.431213
0.427246
0.423279
0.419312
0.415039
0.412292
0.408325
0.405273
0.401917
0.398254
0.396729
0.394592
0.391541
0.390015
0.387878
0.385742
0.384521
0.382996
0.380859
0.379333
0.378418
0.378113
0.377197
0.375977
0.375366
0.375061
0.374146
0.37323
0.37323
0.373535
0.373535
0.37262
0.372925
0.37323
0.372314
0.374146
0.373535
0.374756
0.375366
0.376587
0.377197
0.377197
0.378723
0.379333
0.379944
0.381775
0.381165
0.38269
0.382996
0.384216
0.385132
0.386047
0.386963
0.387573
0.389099
0.389099
0.390625
0.391541
0.391846
0.392761
0.393066
0.393982
0.394287
0.395508
0.395203
0.395813
0.395203
0.396423
0.395203
0.396118
0.395508
0.395508
0.395813
0.394897
0.394287
0.394897
0.393372
0.393372
0.393066
0.391541
0.391846
0.390015
0.388794
0.387268
0.386658
0.385132
0.383606
0.382996
0.380249
0.379333
0.377502
0.375671
0.37384
0.371399
0.369263
0.367737
0.365295
0.363159
0.360107
0.358276
0.35553
0.352783
0.350647
0.347595
0.344849
0.341797
0.33905
0.335999
0.332947
0.329285
0.326538
0.322876
0.319824
0.316467
0.31311
0.310059
0.306091
0.302429
0.298767
0.29541
0.291443
0.287781
0.284119
0.280457
0.276184
0.272217
0.268555
0.264587
0.260315
0.256348
0.25238
0.248108
0.244446
0.239868
0.236206
0.232239
0.228271
0.22522
0.219727
0.216675
0.212708
0.20752
0.204163
0.19989
0.196228
0.192566
0.187988
0.184021
0.179749
0.176392
0.171814
0.168152
0.164185
0.160217
0.15686
0.152588
0.149231
0.145569
0.141907
0.13855
0.134277
0.131226
0.127258
0.124207
0.120544
0.116882
0.113831
0.110779
0.106812
0.103149
0.100098
0.0973511
0.093689
0.0906372
0.0878906
0.0848389
0.0820923
0.0793457
0.0762939
0.0744629
0.0717163
0.0689697
0.0662231
0.0634766
0.06073
0.0579834
0.0549316
0.0531006
0.0509644
0.0482178
0.0454712
0.0430298
0.0415039
0.0390625
0.0366211
0.0350952
0.0332642
0.0308228
0.0292969
0.0271606
0.0259399
0.0241089
0.0222778
0.0204468
0.0177002
0.0167847
0.0152588
0.0140381
0.0115967
0.0109863
0.00915527
0.00732422
0.00549316
0.00457764
0.00396729
0.00274658
0.00244141
0.000915527
0.0
-0.000305176
-0.00152588
-0.00244141
-0.00244141
-0.00366211
-0.00488281
-0.00518799
-0.00488281
-0.00671387
-0.00671387
-0.00701904
-0.00793457
-0.0088501
-0.0088501
-0.00854492
-0.00946045
-0.00915527
-0.00915527
-0.00946045
-0.0109863
-0.0106812
-0.0106812
-0.010376
-0.0109863
-0.0106812
-0.010376
-0.0106812
-0.0115967
-0.0106812
-0.0112915
-0.0119019
-0.0112915
-0.0109863
-0.0112915
-0.0109863
-0.0109863
-0.010376
-0.0100708
-0.00946045
-0.0100708
-0.00976562
-0.00915527
-0.0088501
-0.00946045
-0.00915527
-0.00823975
-0.00823975
-0.00823975
-0.00732422
-0.00701904
-0.00671387
-0.00671387
-0.00671387
-0.00640869
-0.00549316
-0.00549316
-0.00488281
-0.00366211
-0.00305176
-0.00305176
-0.00152588
-0.00183105
-0.000915527
0.000305176
0.0
0.00152588
0.000915527
0.0012207
0.00213623
0.00274658
0.00366211
0.00396729
0.00518799
0.00549316
0.00579834
0.00701904
0.00762939
0.00854492
0.00823975
0.0100708
0.010376
0.0119019
0.0125122
0.0131226
0.0143433
0.0152588
0.0152588
0.0167847
0.0177002
0.0177002
0.0186157
0.0195312
0.020752
0.0213623
0.0222778
0.0228882
0.0238037
0.0244141
0.0253296
0.0271606
0.027771
0.0286865
0.0289917
0.0305176
0.0311279
0.0320435
0.032959
0.0335693
0.0344849
0.0354004
0.0366211
0.0384521
0.038147
0.0396729
0.039978
0.0411987
0.0421143
0.0430298
0.045166
0.0454712
0.0469971
0.0476074
0.0491333
0.0497437
0.0509644
0.0518799
0.0534058
0.0546265
0.0561523
0.0567627
0.057373
0.0588989
0.0604248
0.0616455
0.0628662
0.0646973
0.0650024
0.0656128
0.067749
0.0695801
0.0698853
0.0714111
0.0720215
0.0735474
0.0741577
0.0759888
0.0765991
0.0775146
0.0790405
0.0799561
0.0802612
0.0817871
0.0830078
0.083313
0.0854492
0.0863647
0.0872803
0.088501
0.0894165
0.0912476
0.0918579
0.093689
0.0946045
0.0958252
0.0970459
0.0979614
0.0994873
0.100403
0.101318
0.102539
0.104065
0.10498
0.105896
0.106812
0.108643
0.109253
0.111084
0.111694
0.11261
0.114136
0.115051
0.115662
0.117798
0.118103
0.119934
0.120239
0.121155
0.122986
0.122681
0.124207
0.125732
0.126343
0.127563
0.127869
0.1297
0.1297
0.131531
0.132141
0.133362
0.133972
0.136719
0.136719
0.137634
0.13855
0.13916
0.140381
0.141296
0.141296
0.143127
0.143433
0.144958
0.145874
0.147095
0.148315
0.14801
0.148926
0.150146
0.151367
0.151978
0.152893
0.153503
0.15564
0.15625
0.157776
0.158386
0.159302
0.159912
0.160828
0.162048
0.162354
0.163574
0.16449
0.164795
0.166321
0.167236
0.168457
0.169373
0.169983
0.171814
0.172119
0.173645
0.175171
0.175171
0.177307
0.177917
0.178223
0.179749
0.180664
0.181274
0.183411
0.183411
0.184937
0.185242
0.187073
0.187378
0.188599
0.188904
0.19104
0.191345
0.192261
0.193481
0.193787
0.195312
0.196838
0.197144
0.197754
0.198059
0.199585
0.19989
0.201416
0.202026
0.202637
0.203247
0.204163
0.205688
0.205994
0.206299
0.20752
0.207825
0.208435
0.209045
0.209045
0.210571
0.211487
0.212097
0.212402
0.213013
0.213013
0.213928
0.213928
0.214539
0.215454
0.216064
0.217285
0.21759
0.218201
0.219116
0.219116
0.220032
0.220947
0.220947
0.221863
0.222168
0.222778
0.223083
0.223389
0.22522
0.22522
0.22583
0.226135
0.226746
0.227051
0.227661
0.228271
0.228882
0.228882
0.229492
0.230408
0.231018
0.231323
0.231018
0.232544
0.233459
0.233154
0.234375
0.234985
0.234985
0.235901
0.236511
0.236511
0.237427
0.237732
0.238342
0.239563
0.239868
0.240173
0.240173
0.241394
0.242615
0.243225
0.24353
0.244446
0.245056
0.245972
0.247498
0.247803
0.249023
0.249634
0.250854
0.25116
0.252686
0.254211
0.255432
0.256958
0.258789
0.26001
0.262146
0.264282
0.267029
0.268555
0.272217
0.274963
0.278931
0.282593
0.28595
0.290222
0.296326
0.300598
0.306702
0.313416
0.319824
0.327454
0.335693
0.346069
0.354004
0.365295
0.375671
0.388489
0.401611
0.415649
0.429688
0.445862
0.462036
0.479736
0.498047
0.517578
0.53772
0.559082
0.582275
0.606689
0.630493
0.655518
0.683289
0.710754
0.738525
0.768738
0.798645
0.830078
0.862427
0.89447
0.926819
0.960999
0.994263
1.02814
1.06354
1.09863
1.13373
1.16791
1.20392
1.23901
1.2738
1.30798
1.34277
1.37665
1.41022
1.44318
1.47675
1.50879
1.54053
1.57135
1.60156
1.63055
1.65894
1.68701
1.71326
1.7392
1.76483
1.78833
1.81183
1.83441
1.85577
1.87561
1.89545
1.91345
1.93146
1.94672
1.96228
1.97662
1.99036
2.00378
2.01538
2.02576
2.03522
2.04468
2.05383
2.06024
2.06696
2.07245
2.07703
2.0816
2.08496
2.0871
2.08893
2.09045
2.09045
2.09015
2.09015
2.08893
2.08771
2.08557
2.08221
2.07916
2.07489
2.07062
2.06573
2.06024
2.05414
2.04895
2.04193
2.03552
2.02759
2.02026
2.01263
2.005
1.99524
1.98639
1.97845
1.96899
1.95892
1.94885
1.94
1.92871
1.91864
1.90765
1.89667
1.88629
1.875
1.86401
1.85303
1.84113
1.82922
1.81763
1.80542
1.79413
1.78284
1.76971
1.75842
1.74561
1.73431
1.72241
1.71021
1.6983
1.68671
1.67419
1.6629
1.65039
1.63849
1.6272
1.6153
1.60339
1.59119
1.5799
1.5686
1.55609
1.5451
1.53351
1.52252
1.51093
1.49933
1.48895
1.47705
1.46637
1.45569
1.44531
1.43372
1.42334
1.41235
1.40228
1.3916
1.38153
1.37177
1.36108
1.35132
1.34125
1.33087
1.32172
1.31195
1.30219
1.29364
1.28418
1.27502
1.26617
1.25702
1.24908
1.24023
1.23108
1.22284
1.2149
1.20667
1.19873
1.19019
1.18256
1.17432
1.1673
1.15967
1.15204
1.14471
1.1377
1.13129
1.12457
1.11786
1.11145
1.10474
1.09894
1.09253
1.08612
1.08063
1.07513
1.06873
1.06293
1.05774
1.05194
1.04675
1.04156
1.03638
1.03119
1.026
1.02142
1.01685
1.01196
1.00769
1.0025
0.998535
0.993652
0.98877
0.984497
0.979309
0.976562
0.971985
0.966797
0.96344
0.958862
0.9552
0.950317
0.946655
0.942688
0.938721
0.934143
0.930176
0.926208
0.921021
0.917358
0.914001
0.909424
0.904846
0.900574
0.895996
0.891724
0.887451
0.881653
0.87677
0.872498
0.86853
0.863037
0.858154
0.852356
0.847473
0.84198
0.837708
0.830994
0.8255
0.819092
0.814209
0.8078
0.801697
0.795288
0.788879
0.783081
0.775146
0.768738
0.762024
0.7547
0.748291
0.740662
0.734558
0.726624
0.718994
0.71106
0.704346
0.697021
0.689087
0.682068
0.673523
0.666199
0.657959
0.650635
0.6427
0.63385
0.626526
0.619202
0.611572
0.604248
0.596008
0.587769
0.58136
0.57312
0.566711
0.558472
0.552063
0.545349
0.53833
0.531006
0.524902
0.518188
0.511475
0.505371
0.498657
0.492554
0.486755
0.480957
0.475159
0.469971
0.464478
0.460205
0.454407
0.449829
0.445251
0.440369
0.436401
0.432129
0.427856
0.425415
0.421143
0.41748
0.414429
0.411682
0.407104
0.405273
0.401611
0.400085
0.397949
0.395813
0.393982
0.391235
0.390015
0.388184
0.386963
0.386047
0.384521
0.384216
0.383301
0.38208
0.38208
0.38147
0.381165
0.380249
0.379639
0.380554
0.379333
0.379944
0.380554
0.380859
0.38147
0.381775
0.38208
0.382385
0.383301
0.384216
0.384521
0.385437
0.386658
0.386658
0.388489
0.388794
0.389099
0.390625
0.391541
0.391846
0.392761
0.392761
0.394592
0.394592
0.394897
0.395813
0.396423
0.397949
0.39856
0.39917
0.398865
0.398865
0.39917
0.400085
0.400391
0.400391
0.400696
0.400696
0.400391
0.400085
0.39978
0.398865
0.39856
0.398254
0.397949
0.396729
0.396118
0.394592
0.394592
0.393982
0.391846
0.39093
0.389404
0.388489
0.386658
0.385742
0.383911
0.382385
0.380249
0.379028
0.377197
0.374451
0.37262
0.370178
0.368042
0.365601
0.363464
0.361023
0.357361
0.355835
0.352478
0.350342
0.34668
0.343628
0.341187
0.33783
0.334473
0.3302
0.326843
0.323486
0.319824
0.316162
0.31311
0.308533
0.305176
0.301514
0.297546
0.293274
0.289612
0.285645
0.281372
0.277405
0.273743
0.26886
0.265503
0.26123
0.256653
0.25238
0.247803
0.243225
0.239563
0.235291
0.231628
0.227051
0.222778
0.218201
0.215149
0.210571
0.206909
0.201721
0.198364
0.194092
0.19043
0.186462
0.1828
0.177917
0.17395
0.170898
0.166321
0.162659
0.158386
0.154724
0.151367
0.147705
0.143738
0.139771
0.135803
0.133362
0.130005
0.125732
0.122681
0.119019
0.115662
0.11261
0.109253
0.105896
0.103149
0.0994873
0.0964355
0.0927734
0.090332
0.0866699
0.083313
0.0808716
0.0790405
0.0759888
0.0726318
0.0704956
0.0686646
0.0656128
0.0631714
0.06073
0.0585938
0.055542
0.0531006
0.0509644
0.0488281
0.0463867
0.0445557
0.0421143
0.039978
0.038147
0.0360107
0.0341797
0.032959
0.0305176
0.0283813
0.0268555
0.0250244
0.0234985
0.0216675
0.0210571
0.0195312
0.0180054
0.0167847
0.0149536
0.0134277
0.0134277
0.0112915
0.0109863
0.0088501
0.00854492
0.00762939
0.00640869
0.00549316
0.00457764
0.00366211
0.00305176
0.00335693
0.00213623
0.00152588
0.000610352
0.000305176
-0.000610352
-0.000610352
-0.000610352
-0.0012207
-0.0012207
-0.00152588
-0.00213623
-0.00183105
-0.00213623
-0.00305176
-0.00274658
-0.00274658
-0.00335693
-0.00335693
-0.00335693
-0.00335693
-0.00335693
-0.00244141
-0.00335693
-0.00335693
-0.00305176
-0.00335693
-0.00396729
-0.00335693
-0.00274658
-0.00274658
-0.00244141
-0.00183105
-0.00183105
-0.0012207
-0.00152588
-0.000915527
-0.0012207
-0.0012207
-0.000610352
0.000610352
0.000610352
0.0012207
0.000610352
0.00183105
0.00213623
0.00213623
0.00305176
0.00335693
0.00457764
0.00488281
0.00518799
0.00549316
0.00640869
0.00701904
0.00793457
0.00793457
0.0088501
0.0088501
0.0100708
0.010376
0.010376
0.0115967
0.012207
0.0128174
0.0137329
0.0140381
0.0152588
0.015564
0.0164795
0.0167847
0.0180054
0.0186157
0.0189209
0.0195312
0.0198364
0.0216675
0.0216675
0.022583
0.0238037
0.0247192
0.0247192
0.0256348
0.0265503
0.0274658
0.0283813
0.0286865
0.0302124
0.0308228
0.0317383
0.0326538
0.0332642
0.0335693
0.0350952
0.0354004
0.0366211
0.0369263
0.038147
0.0384521
0.0390625
0.0405884
0.0424194
0.0424194
0.0439453
0.045166
0.045166
0.0469971
0.0469971
0.0479126
0.050354
0.050354
0.0509644
0.0527954
0.0531006
0.0543213
0.0549316
0.0567627
0.0576782
0.0588989
0.0601196
0.0613403
0.062561
0.0643921
0.0653076
0.0662231
0.067749
0.0686646
0.0692749
0.0701904
0.0720215
0.0732422
0.0741577
0.0750732
0.0765991
0.078125
0.0787354
0.0802612
0.0802612
0.0820923
0.0823975
0.0848389
0.0848389
0.0869751
0.0878906
0.0881958
0.0897217
0.090332
0.0909424
0.0927734
0.0939941
0.0939941
0.0952148
0.0967407
0.0976562
0.0985718
0.0994873
0.0997925
0.101624
0.102234
0.10376
0.104675
0.105591
0.106812
0.108032
0.109253
0.110474
0.110474
0.112305
0.11322
0.114746
0.115051
0.116272
0.117798
0.118713
0.119629
0.121155
0.12146
0.122375
0.123901
0.124817
0.125732
0.126343
0.127869
0.128479
0.13031
0.13031
0.131531
0.132446
0.133057
0.134277
0.135803
0.136414
0.137329
0.138855
0.13916
0.139771
0.140991
0.141602
0.142822
0.143738
0.144958
0.145569
0.145569
0.1474
0.148621
0.148621
0.150146
0.150146
0.151367
0.151672
0.152893
0.153809
0.153809
0.155334
0.15564
0.156555
0.157776
0.157166
0.158386
0.159912
0.160217
0.161743
0.162354
0.162964
0.16449
0.165405
0.166016
0.167236
0.167847
0.168152
0.170288
0.171204
0.171814
0.172729
0.174561
0.174561
0.176086
0.176697
0.177917
0.178528
0.179749
0.180664
0.18219
0.183105
0.184326
0.184326
0.185242
0.186157
0.187378
0.189514
0.189514
0.190125
0.19165
0.192871
0.193481
0.195007
0.195312
0.196838
0.196533
0.198364
0.19928
0.2005
0.201111
0.202332
0.203247
0.203552
0.205688
0.205688
0.205688
0.207825
0.20874
0.209961
0.210876
0.211487
0.211792
0.212708
0.213623
0.214233
0.215149
0.216064
0.21759
0.218811
0.218811
0.220032
0.220947
0.221558
0.222168
0.223389
0.224609
0.224304
0.224915
0.22644
0.227356
0.227966
0.229187
0.229797
0.230713
0.231323
0.231934
0.232849
0.233154
0.23468
0.234985
0.235901
0.236511
0.237427
0.239258
0.239563
0.240173
0.241699
0.24231
0.242004
0.24353
0.243835
0.245056
0.245667
0.246582
0.247498
0.247192
0.248108
0.249329
0.250549
0.251465
0.251465
0.25238
0.25177
0.252991
0.254211
0.254822
0.254822
0.254822
0.255432
0.256958
0.256958
0.258179
0.258179
0.258789
0.260315
0.260315
0.261536
0.262146
0.262451
0.262451
0.262146
0.264282
0.265198
0.265198
0.265503
0.266724
0.266724
0.267944
0.267944
0.268555
0.26886
0.269165
0.270386
0.270386
0.271301
0.270386
0.271301
0.272522
0.272827
0.273438
0.273743
0.274353
0.275269
0.276184
0.276794
0.2771
0.277405
0.27771
0.27832
0.278625
0.279541
0.280151
0.281372
0.281677
0.283203
0.283508
0.285339
0.28595
0.286865
0.288086
0.289612
0.291443
0.292358
0.293884
0.295105
0.298157
0.299377
0.301514
0.303955
0.306091
0.308533
0.312805
0.316162
0.319519
0.323792
0.328064
0.332947
0.339355
0.345154
0.351562
0.358276
0.366211
0.374451
0.383301
0.393372
0.404358
0.415649
0.427551
0.440979
0.455322
0.46936
0.485229
0.501404
0.519714
0.53772
0.557861
0.578003
0.600586
0.623169
0.646362
0.671692
0.696716
0.723267
0.750732
0.779114
0.809326
0.838928
0.870056
0.901794
0.933838
0.967102
1.00037
1.03363
1.06812
1.10291
1.13739
1.1731
1.20819
1.24359
1.2793
1.31409
1.34949
1.38428
1.41846
1.45233
1.4859
1.51947
1.55212
1.58325
1.61469
1.64642
1.67664
1.70532
1.73492
1.76178
1.78864
1.81519
1.8396
1.86432
1.88721
1.90979
1.93115
1.95129
1.97144
1.98975
2.00684
2.02332
2.03827
2.05292
2.06635
2.07916
2.09045
2.10144
2.1106
2.12036
2.12769
2.13562
2.14203
2.14752
2.1521
2.15546
2.15912
2.16095
2.16339
2.16339
2.1637
2.16339
2.16248
2.16034
2.15851
2.15485
2.15118
2.14783
2.14264
2.13745
2.13226
2.12646
2.12067
2.11304
2.10632
2.09808
2.09076
2.0816
2.07336
2.0639
2.05536
2.04498
2.03461
2.02484
2.01508
2.00439
1.99341
1.98242
1.97052
1.95892
1.94733
1.93634
1.92505
1.91254
1.89941
1.88782
1.87592
1.86279
1.84967
1.83716
1.82495
1.81152
1.7984
1.78711
1.77277
1.75995
1.74805
1.73492
1.72119
1.70776
1.69495
1.68213
1.66901
1.65649
1.64307
1.63116
1.61743
1.60431
1.5921
1.57898
1.56738
1.55457
1.54175
1.52985
1.51764
1.50482
1.49231
1.48041
1.46912
1.4566
1.44531
1.43372
1.42212
1.41113
1.40045
1.38855
1.37756
1.36688
1.35681
1.34613
1.33514
1.32477
1.31561
1.30463
1.29547
1.2851
1.27594
1.26617
1.2561
1.24786
1.2384
1.23108
1.22101
1.21246
1.20483
1.19659
1.18805
1.18042
1.1731
1.16455
1.15723
1.1499
1.14288
1.13617
1.12823
1.12152
1.1145
1.1084
1.10229
1.09558
1.08978
1.08307
1.07849
1.07178
1.06659
1.06079
1.0553
1.0495
1.04462
1.03973
1.03394
1.02844
1.02386
1.01898
1.0141
1.00891
1.00372
0.999756
0.995178
0.990295
0.986023
0.98175
0.976868
0.97229
0.968018
0.963745
0.958862
0.9552
0.951538
0.94696
0.942688
0.9375
0.933838
0.929871
0.925293
0.921021
0.916138
0.91217
0.907288
0.90271
0.898132
0.89325
0.888367
0.884399
0.878601
0.874329
0.869751
0.863953
0.858459
0.853882
0.847778
0.84259
0.837402
0.830688
0.824585
0.818481
0.812073
0.805969
0.798645
0.792542
0.785522
0.779724
0.7724
0.765076
0.758057
0.751038
0.743408
0.735168
0.728149
0.720215
0.711975
0.705261
0.696106
0.688171
0.679626
0.671387
0.663452
0.655518
0.646667
0.639038
0.631104
0.623169
0.614319
0.606689
0.598145
0.589905
0.581665
0.57373
0.565796
0.558472
0.550537
0.542297
0.535278
0.527649
0.52002
0.51239
0.505981
0.499573
0.491943
0.485229
0.478516
0.471802
0.466309
0.461121
0.455017
0.449829
0.443726
0.438538
0.43335
0.428467
0.4245
0.419312
0.415039
0.411072
0.40741
0.402527
0.398865
0.395508
0.393066
0.389099
0.386047
0.384216
0.380554
0.378113
0.375366
0.373535
0.371399
0.369568
0.368958
0.366211
0.36499
0.36377
0.362549
0.361633
0.360718
0.359192
0.359497
0.359192
0.358887
0.358582
0.357666
0.358582
0.358582
0.358582
0.358887
0.359192
0.359802
0.359802
0.360413
0.361328
0.361633
0.362854
0.364075
0.36377
0.364685
0.365906
0.366821
0.367737
0.368347
0.369873
0.370789
0.371399
0.372009
0.371704
0.373535
0.374451
0.375977
0.376282
0.376892
0.376587
0.377808
0.377808
0.378418
0.379639
0.379028
0.380859
0.379944
0.380859
0.380859
0.380859
0.380554
0.380859
0.380859
0.381165
0.379944
0.379944
0.378723
0.379333
0.378113
0.378113
0.376892
0.375671
0.374756
0.373535
0.373535
0.372009
0.370789
0.370178
0.368347
0.367432
0.365295
0.364075
0.361633
0.360413
0.358582
0.356445
0.354004
0.351868
0.349731
0.347595
0.345764
0.342102
0.339661
0.336609
0.333557
0.3302
0.327454
0.324402
0.321045
0.317993
0.314026
0.310974
0.307617
0.30426
0.300903
0.297241
0.293274
0.290222
0.28595
0.282898
0.279236
0.274658
0.271301
0.267029
0.263062
0.259094
0.254822
0.25116
0.246582
0.242615
0.238342
0.23468
0.231018
0.22644
0.222778
0.218506
0.214844
0.209961
0.205383
0.201721
0.197754
0.193787
0.189819
0.184937
0.181274
0.177612
0.17334
0.169678
0.165405
0.161438
0.157471
0.153809
0.150146
0.146179
0.143127
0.13916
0.136108
0.132141
0.129395
0.125122
0.121765
0.117798
0.114746
0.111694
0.108032
0.10498
0.101929
0.0979614
0.0949097
0.0930786
0.0891113
0.0860596
0.0842285
0.0817871
0.0796509
0.0769043
0.0747681
0.0717163
0.0686646
0.0668335
0.0646973
0.0613403
0.0592041
0.0576782
0.0549316
0.0531006
0.0506592
0.0482178
0.0473022
0.0442505
0.0424194
0.0405884
0.0390625
0.0366211
0.0357056
0.0344849
0.032959
0.0311279
0.0299072
0.027771
0.0265503
0.0250244
0.0244141
0.0231934
0.0222778
0.0198364
0.0195312
0.0186157
0.0183105
0.017395
0.0149536
0.0152588
0.0146484
0.0134277
0.0128174
0.0119019
0.0106812
0.0109863
0.0100708
0.00946045
0.0088501
0.00793457
0.00732422
0.00701904
0.00640869
0.00610352
0.00579834
0.00518799
0.00488281
0.00427246
0.00488281
0.00427246
0.00396729
0.00305176
0.00305176
0.00274658
0.00274658
0.00274658
0.00305176
0.00305176
0.00244141
0.00213623
0.00244141
0.00244141
0.00244141
0.00244141
0.00213623
0.00244141
0.00244141
0.00244141
0.00152588
0.00213623
0.00244141
0.00274658
0.00335693
0.00366211
0.00396729
0.00396729
0.00488281
0.00488281
0.00488281
0.00579834
0.00610352
0.00610352
0.00671387
0.00793457
0.00732422
0.00793457
0.00854492
0.00854492
0.00915527
0.010376
0.010376
0.0112915
0.0109863
0.012207
0.0125122
0.0128174
0.0134277
0.0152588
0.0152588
0.0161743
0.0164795
0.0170898
0.0170898
0.0183105
0.0189209
0.0201416
0.0201416
0.0213623
0.0219727
0.0234985
0.0234985
0.0234985
0.0247192
0.0265503
0.0268555
0.0274658
0.0274658
0.0289917
0.0302124
0.0305176
0.0317383
0.032959
0.0332642
0.0338745
0.0344849
0.0357056
0.0363159
0.0369263
0.0384521
0.0396729
0.039978
0.0411987
0.0418091
0.0424194
0.0439453
0.0439453
0.0454712
0.0460815
0.0473022
0.0482178
0.0488281
0.0497437
0.0512695
0.0518799
0.0527954
0.0537109
0.0546265
0.0558472
0.0570679
0.0576782
0.0585938
0.0604248
0.0601196
0.062561
0.0631714
0.0634766
0.0650024
0.0653076
0.0665283
0.0671387
0.0683594
0.0692749
0.0695801
0.071106
0.0717163
0.072937
0.0738525
0.0756836
0.0750732
0.0759888
0.078125
0.0787354
0.0796509
0.0799561
0.0808716
0.0823975
0.0823975
0.0836182
0.0848389
0.0857544
0.0863647
0.088501
0.0891113
0.0894165
0.090332
0.0915527
0.0921631
0.0933838
0.0952148
0.09552
0.0967407
0.0985718
0.098877
0.100098
0.101013
0.102539
0.103149
0.104675
0.105591
0.106506
0.107422
0.108337
0.108948
0.111084
0.112305
0.11261
0.114441
0.114441
0.115967
0.116272
0.118408
0.118408
0.119629
0.12207
0.121765
0.122681
0.124207
0.125122
0.126343
0.127563
0.128479
0.1297
0.130005
0.131226
0.132446
0.133362
0.134583
0.134583
0.136414
0.137329
0.139465
0.139465
0.140991
0.141907
0.142517
0.143738
0.145569
0.146484
0.1474
0.147705
0.149536
0.150757
0.151367
0.152283
0.153809
0.155029
0.155334
0.15686
0.157776
0.158997
0.159912
0.161133
0.162659
0.163574
0.164185
0.16571
0.166626
0.166931
0.168152
0.169373
0.170288
0.170898
0.171814
0.172729
0.173645
0.174255
0.175781
0.177307
0.178223
0.178833
0.179749
0.180359
0.181274
0.1828
0.183716
0.185547
0.185852
0.186157
0.187073
0.187378
0.188599
0.189514
0.19043
0.191345
0.192261
0.192566
0.193176
0.194397
0.195007
0.195618
0.195923
0.197449
0.198364
0.199585
0.200806
0.200806
0.201721
0.202637
0.203247
0.204163
0.205078
0.205994
0.207214
0.207214
0.20813
0.209045
0.209351
0.209961
0.210571
0.212097
0.212708
0.213623
0.213928
0.214539
0.215454
0.215759
0.216675
0.217285
0.217896
0.21759
0.218506
0.218811
0.219727
0.220642
0.219727
0.221252
0.221558
0.221863
0.222168
0.223083
0.223694
0.223694
0.224609
0.226135
0.225525
0.22644
0.227051
0.227356
0.227356
0.227661
0.227356
0.227966
0.228882
0.228271
0.228577
0.229187
0.229492
0.230103
0.229797
0.230713
0.230713
0.231323
0.231934
0.231628
0.231934
0.232544
0.232544
0.232239
0.233154
0.233154
0.233765
0.233459
0.233765
0.23468
0.23407
0.234375
0.235596
0.235291
0.235901
0.235596
0.236816
0.236511
0.238037
0.237122
0.237427
0.238342
0.238647
0.238953
0.239563
0.239868
0.240173
0.240479
0.241394
0.242615
0.241699
0.24292
0.243225
0.245056
0.245056
0.246582
0.246887
0.248413
0.249023
0.251465
0.25177
0.254517
0.256653
0.259094
0.26123
0.264282
0.266724
0.270081
0.273132
0.276489
0.282288
0.286255
0.292053
0.296631
0.30365
0.310669
0.317383
0.325317
0.334473
0.343323
0.353699
0.363159
0.375671
0.387573
0.399475
0.413513
0.428162
0.443726
0.458984
0.475464
0.493774
