0.519714
0.527954
0.535583
0.544128
0.552673
0.561218
0.570374
0.578918
0.588989
0.598145
0.6073
0.61676
0.625916
0.636597
0.646667
0.656433
0.666809
0.677185
0.686646
0.697937
0.708008
0.718079
0.728455
0.73761
0.748291
0.758362
0.768738
0.778503
0.787964
0.798035
0.807495
0.816956
0.827026
0.836182
0.845337
0.854187
0.863647
0.871582
0.880432
0.888977
0.896301
0.904846
0.913391
0.92041
0.927124
0.933228
0.940552
0.94574
0.952148
0.957947
0.96344
0.967712
0.973206
0.978088
0.982971
0.986938
0.989685
0.993958
0.996399
0.999451
1.00281
1.00494
1.00586
1.00769
1.00983
1.01044
1.01135
1.01135
1.01196
1.01257
1.01135
1.01135
1.01044
1.00861
1.008
1.00677
1.00494
1.00281
1.00098
0.999451
0.996094
0.993958
0.990601
0.987549
0.984802
0.98114
0.978088
0.974426
0.970154
0.966797
0.96283
0.958252
0.953674
0.949402
0.945435
0.940857
0.936279
0.931396
0.926819
0.922852
0.917969
0.913086
0.908203
0.90332
0.898438
0.893555
0.888062
0.883484
0.878906
0.873108
0.868225
0.863647
0.858765
0.854187
0.848999
0.845642
0.840454
0.835876
0.830994
0.826416
0.821228
0.81665
0.812988
0.808105
0.803528
0.799561
0.794678
0.790405
0.787048
0.782471
0.778503
0.774536
0.770569
0.766907
0.762939
0.759583
0.75592
0.752258
0.748901
0.745239
0.741272
0.739136
0.735779
0.732422
0.72876
0.725708
0.722961
0.719604
0.716553
0.714111
0.71106
0.707703
0.704651
0.701599
0.699463
0.696411
0.69397
0.691528
0.688782
0.686951
0.683899
0.681763
0.679626
0.67749
0.675049
0.671997
0.669556
0.667725
0.664673
0.662231
0.6604
0.657959
0.655823
0.653076
0.650635
0.648193
0.645447
0.642395
0.639954
0.636902
0.635376
0.632019
0.629578
0.626526
0.623169
0.621033
0.617676
0.615234
0.611877
0.608521
0.605469
0.601196
0.59845
0.594788
0.591736
0.588684
0.585632
0.582275
0.578613
0.574646
0.570984
0.567932
0.564575
0.561218
0.558472
0.554199
0.551453
0.547791
0.544128
0.541077
0.53772
0.534363
0.531006
0.527954
0.525208
0.522461
0.52002
0.517273
0.514832
0.512085
0.508728
0.506592
0.50415
0.501709
0.499268
0.497131
0.494995
0.493469
0.490417
0.489197
0.487366
0.48584
0.483704
0.482788
0.480957
0.480042
0.479126
0.477295
0.476379
0.475464
0.475159
0.474548
0.473938
0.473633
0.473022
0.472717
0.472412
0.472412
0.472412
0.472107
0.472107
0.472717
0.473022
0.473022
0.473022
0.473938
0.474243
0.475769
0.476379
0.47699
0.477295
0.478516
0.479126
0.480957
0.480652
0.481873
0.482788
0.484314
0.484619
0.485535
0.487671
0.488892
0.489502
0.490723
0.493164
0.49408
0.494385
0.495911
0.497131
0.499268
0.499573
0.501404
0.502625
0.50415
0.505066
0.506592
0.507507
0.508728
0.510254
0.511475
0.51178
0.513916
0.514221
0.516052
0.516968
0.517883
0.519714
0.519409
0.521545
0.521851
0.523376
0.523376
0.524902
0.525818
0.526428
0.526428
0.528259
0.52887
0.529175
0.529785
0.53009
0.530701
0.531006
0.531311
0.531006
0.532227
0.531311
0.531311
0.531616
0.531921
0.531921
0.531311
0.532227
0.531006
0.53009
0.53009
0.53009
0.529785
0.529175
0.529175
0.528259
0.526733
0.526428
0.526123
0.523987
0.524292
0.522766
0.522461
0.520935
0.519409
0.518799
0.517273
0.516357
0.515137
0.513611
0.512085
0.510559
0.509338
0.507202
0.506287
0.505066
0.503845
0.501404
0.499878
0.498962
0.497131
0.495605
0.49469
0.492249
0.489807
0.489197
0.486755
0.484619
0.483704
0.481873
0.479736
0.4776
0.475769
0.473633
0.472412
0.469666
0.46814
0.466003
0.463867
0.462341
0.46051
0.458069
0.456543
0.454407
0.452576
0.451355
0.449219
0.447083
0.445251
0.443115
0.440979
0.439453
0.437927
0.435486
0.43396
0.432129
0.429688
0.427856
0.426636
0.42511
0.422974
0.421448
0.420532
0.419006
0.41687
0.415649
0.414429
0.412903
0.411072
0.409241
0.408936
0.406799
0.405884
0.404053
0.403137
0.401001
0.400085
0.398865
0.397644
0.396729
0.395203
0.393982
0.393066
0.393066
0.391846
0.390625
0.388794
0.388794
0.386658
0.386658
0.386047
0.384827
0.384216
0.383301
0.38269
0.382385
0.38147
0.38147
0.379944
0.379944
0.378723
0.379028
0.378723
0.377808
0.377502
0.377502
0.376892
0.376892
0.375977
0.376587
0.375977
0.375366
0.375977
0.375671
0.375061
0.374451
0.374451
0.374451
0.374451
0.374451
0.374146
0.374146
0.374146
0.374146
0.374451
0.37384
0.37384
0.374451
0.374451
0.37384
0.37384
0.374146
0.374451
0.37384
0.373535
0.37384
0.374146
0.37384
0.373535
0.37323
0.37384
0.37384
0.37384
0.37384
0.374451
0.374451
0.374451
0.374146
0.374756
0.374756
0.374451
0.374451
0.373535
0.37384
0.37323
0.37384
0.37384
0.37384
0.374146
0.374146
0.374146
0.37384
0.37384
0.37384
0.37384
0.374451
0.374451
0.374451
0.37384
0.37384
0.37384
0.374756
0.37384
0.37323
0.37384
0.37323
0.37323
0.37323
0.372314
0.37262
0.372314
0.372314
0.37262
0.372925
0.372009
0.372009
0.371094
0.371094
0.371704
0.370789
0.370483
0.370178
0.370178
0.369568
0.369263
0.369263
0.368958
0.368958
0.368958
0.368958
0.368347
0.368347
0.368347
0.367737
0.368652
0.368347
0.368347
0.367737
0.368652
0.367737
0.367737
0.367126
0.367432
0.368042
0.367737
0.367737
0.367126
0.368042
0.367737
0.366821
0.367126
0.367432
0.367432
0.367737
0.367126
0.367737
0.367737
0.367737
0.368347
0.368958
0.368958
0.368958
0.369263
0.369568
0.370483
0.370178
0.370483
0.370789
0.371094
0.371399
0.371704
0.372009
0.372314
0.372925
0.373535
0.374756
0.373535
0.374451
0.375366
0.375671
0.375977
0.376587
0.376282
0.377808
0.377808
0.378418
0.378418
0.379028
0.379333
0.379944
0.380554
0.381775
0.38208
0.38269
0.382996
0.382996
0.384521
0.384827
0.385437
0.385742
0.386047
0.386353
0.386963
0.386963
0.387878
0.388184
0.388489
0.388794
0.389709
0.389709
0.39093
0.39093
0.391235
0.392151
0.392151
0.393066
0.393066
0.393372
0.393677
0.394592
0.394592
0.396118
0.395813
0.396423
0.397949
0.398865
0.39917
0.400391
0.401001
0.402832
0.403442
0.405579
0.406494
0.40863
0.410156
0.411987
0.414734
0.41626
0.418396
0.422363
0.4245
0.426636
0.429993
0.43396
0.437012
0.441895
0.445557
0.449524
0.454407
0.459595
0.464172
0.469666
0.474548
0.480957
0.485535
0.492554
0.499268
0.505981
0.513306
0.520325
0.527649
0.534668
0.542603
0.551453
0.559692
0.567627
0.576782
0.586548
0.594177
0.603333
0.613098
0.622864
0.63324
0.642395
0.651855
0.662842
0.672913
0.683289
0.693054
0.70343
0.713806
0.723877
0.734253
0.744629
0.754089
0.765076
0.775757
0.784912
0.794983
0.805054
0.814209
0.82489
0.834045
0.844727
0.853882
0.862732
0.871887
0.879822
0.889282
0.897827
0.906067
0.912781
0.921021
0.928345
0.935669
0.942993
0.948792
0.9552
0.961914
0.967407
0.973511
0.979004
0.983276
0.98877
0.993042
0.997314
1.00128
1.00555
1.0083
1.01105
1.01471
1.01654
1.01837
1.02051
1.02234
1.02295
1.02356
1.02478
1.0257
1.02539
1.02509
1.02509
1.02448
1.02234
1.02264
1.02142
1.01898
1.01776
1.01593
1.01288
1.01044
1.00769
1.00494
1.00128
0.99823
0.994873
0.992126
0.987244
0.983887
0.979309
0.975342
0.971375
0.966797
0.96283
0.958862
0.953674
0.949097
0.943909
0.939636
0.935059
0.929871
0.925598
0.920105
0.914917
0.909424
0.904236
0.899658
0.894165
0.889587
0.883789
0.878906
0.874329
0.868835
0.863647
0.859375
0.853577
0.848694
0.843506
0.838623
0.833435
0.828552
0.822754
0.818787
0.813293
0.808716
0.803528
0.79834
0.793457
0.789185
0.784302
0.779724
0.774536
0.771179
0.767212
0.762329
0.758362
0.754395
0.750122
0.74585
0.742493
0.73822
0.734253
0.72998
0.727539
0.724182
0.71991
0.716858
0.713806
0.709839
0.706787
0.704651
0.700378
0.697937
0.694885
0.691833
0.688782
0.68634
0.682983
0.680237
0.67688
0.674133
0.671387
0.668945
0.666504
0.663757
0.660706
0.657959
0.655518
0.652466
0.649414
0.647278
0.644836
0.641785
0.638733
0.636292
0.63324
0.630493
0.627747
0.624695
0.621338
0.618591
0.61554
0.611572
0.608521
0.605469
0.602112
0.598755
0.594788
0.591736
0.588379
0.584412
0.581055
0.578003
0.574646
0.571594
0.567322
0.564575
0.560608
0.557251
0.554199
0.549927
0.546265
0.542908
0.540161
0.536194
0.532837
0.52948
0.525208
0.522461
0.519104
0.516052
0.512085
0.509338
0.506287
0.50354
0.499878
0.498047
0.49408
0.491638
0.488586
0.48584
0.484009
0.480347
0.478516
0.475769
0.473633
0.470276
0.46875
0.467224
0.464783
0.463257
0.461426
0.459595
0.458069
0.457153
0.455017
0.454407
0.453186
0.452271
0.451355
0.450745
0.449829
0.449524
0.448303
0.447998
0.447388
0.447388
0.447083
0.446777
0.446167
0.446777
0.447388
0.447388
0.447998
0.448608
0.448914
0.449524
0.450134
0.450134
0.45105
0.451965
0.452881
0.453491
0.454407
0.455322
0.456238
0.457153
0.458374
0.459595
0.460815
0.461731
0.462952
0.464478
0.465698
0.466919
0.468445
0.469055
0.470581
0.472107
0.473022
0.474243
0.475769
0.476685
0.47821
0.478516
0.480042
0.481262
0.482178
0.483398
0.484924
0.485229
0.486145
0.487061
0.488892
0.489502
0.490112
0.491638
0.492249
0.493469
0.49469
0.494385
0.495911
0.495911
0.496826
0.498047
0.498352
0.498657
0.498962
0.499878
0.499878
0.500183
0.500183
0.501099
0.501404
0.500488
0.500793
0.500793
0.501099
0.500488
0.500793
0.500183
0.499878
0.500183
0.499573
0.499573
0.498047
0.498657
0.497742
0.497437
0.496826
0.496216
0.4953
0.49408
0.493469
0.492859
0.491638
0.490417
0.489807
0.488892
0.486755
0.48584
0.484924
0.483398
0.481262
0.480652
0.47821
0.47699
0.475769
0.474854
0.473022
0.471191
0.470581
0.46814
0.466003
0.463867
0.463867
0.461121
0.45929
0.457458
0.455322
0.453796
0.452271
0.449829
0.447693
0.446777
0.445251
0.443115
0.440674
0.439148
0.436707
0.434875
0.43335
0.431519
0.430298
0.427856
0.426331
0.424805
0.422668
0.421143
0.419312
0.417786
0.415955
0.414429
0.412598
0.410767
0.409241
0.407104
0.404663
0.403748
0.401917
0.400696
0.399475
0.398254
0.395813
0.394287
0.392761
0.391846
0.39032
0.389099
0.387268
0.385437
0.384827
0.382996
0.38147
0.380249
0.379333
0.378418
0.376587
0.375977
0.374756
0.374146
0.372314
0.370789
0.369873
0.368958
0.367737
0.367737
0.366821
0.365601
0.36438
0.363159
0.362549
0.361938
0.360718
0.359802
0.359192
0.357666
0.357666
0.355835
0.35553
0.35553
0.354309
0.353699
0.353394
0.353699
0.352478
0.351868
0.351562
0.351562
0.351562
0.351257
0.350647
0.350037
0.349426
0.350037
0.349426
0.348816
0.348816
0.348816
0.348511
0.348206
0.348206
0.348511
0.3479
0.348206
0.348511
0.348206
0.348511
0.348206
0.348206
0.348206
0.348206
0.348511
0.348206
0.3479
0.348206
0.348206
0.348511
0.348511
0.3479
0.348511
0.348511
0.348816
0.348511
0.3479
0.348206
0.348206
0.3479
0.347595
0.348511
0.348511
0.348511
0.348206
0.348511
0.348206
0.3479
0.348511
0.347595
0.348511
0.348206
0.3479
0.3479
0.348206
0.347595
0.348206
0.347595
0.348511
0.348206
0.348206
0.3479
0.3479
0.3479
0.347595
0.34729
0.34729
0.34729
0.347595
0.3479
0.34729
0.346985
0.346985
0.346985
0.346985
0.347595
0.346985
0.346985
0.34668
0.346985
0.34668
0.34729
0.346375
0.34729
0.34668
0.34668
0.346069
0.346375
0.34668
0.345764
0.346375
0.34668
0.34668
0.346375
0.347595
0.34668
0.34729
0.34729
0.34729
0.347595
0.3479
0.348206
0.3479
0.347595
0.347595
0.34729
0.347595
0.346985
0.3479
0.348206
0.3479
0.348511
0.3479
0.3479
0.348206
0.3479
0.348206
0.3479
0.347595
0.348206
0.3479
0.3479
0.347595
0.34729
0.348816
0.348206
0.349121
0.348816
0.348511
0.348816
0.349426
0.349426
0.350342
0.350952
0.350647
0.350952
0.350952
0.351257
0.351562
0.351868
0.352783
0.352783
0.353088
0.353699
0.353699
0.354309
0.354004
0.354614
0.35614
0.35553
0.357056
0.357361
0.358276
0.357971
0.358887
0.359802
0.359802
0.361328
0.361328
0.361328
0.363159
0.363159
0.364075
0.36499
0.365295
0.366821
0.367126
0.368652
0.369568
0.370483
0.371094
0.37262
0.374451
0.375977
0.377502
0.379944
0.380859
0.383301
0.384216
0.386963
0.388489
0.391846
0.394287
0.397644
0.400391
0.403748
0.405884
0.410156
0.413818
0.418091
0.422058
0.426941
0.431213
0.436707
0.441895
0.447083
0.453186
0.458374
0.465393
0.471191
0.477905
0.485229
0.491943
0.499573
0.506592
0.514221
0.522766
0.531006
0.539246
0.548096
0.556946
0.565491
0.574951
0.583801
0.593567
0.603027
0.613098
0.622864
0.632935
0.6427
0.653687
0.663452
0.673218
0.684204
0.694275
0.705261
0.716248
0.726013
0.735779
0.746155
0.756836
0.767517
0.778503
0.788574
0.798645
0.808716
0.819397
0.827942
0.838013
0.847778
0.856628
0.866699
0.875244
0.884094
0.892944
0.901794
0.909424
0.917358
0.924988
0.933533
0.940552
0.947266
0.953674
0.960693
0.967102
0.971985
0.977783
0.983887
0.98877
0.993347
0.998535
1.0022
1.00647
1.00952
1.01227
1.01562
1.01837
1.02081
1.02295
1.02417
1.026
1.02661
1.02844
1.02875
1.02905
1.02875
1.02844
1.02814
1.02722
1.02661
1.0257
1.02356
1.02203
1.02081
1.01715
1.01562
1.01318
1.01044
1.00739
1.00494
1.00159
0.99762
0.994263
0.990295
0.986938
0.982971
0.978699
0.974426
0.970459
0.966187
0.961914
0.957031
0.951843
0.947876
0.942688
0.93811
0.933838
0.927429
0.922546
0.917664
0.91217
0.906982
0.902405
0.897522
0.892029
0.887146
0.882263
0.87677
0.871582
0.866394
0.861511
0.856628
0.852051
0.846863
0.84198
0.837097
0.831909
0.827332
0.823669
0.817871
0.813293
0.808716
0.803833
0.799255
0.795898
0.790405
0.786743
0.782471
0.778198
0.773621
0.769653
0.765381
0.761719
0.757446
0.754089
0.750122
0.746155
0.742798
0.738525
0.735474
0.731812
0.727539
0.724182
0.721436
0.718994
0.714722
0.71228
0.709839
0.706482
0.704346
0.700989
0.698547
0.695496
0.693665
0.690918
0.688171
0.685425
0.683594
0.679321
0.677795
0.675964
0.672913
0.670776
0.66925
0.666809
0.664368
0.661926
0.659485
0.656738
0.653992
0.651855
0.649414
0.646973
0.644531
0.641785
0.638428
0.635376
0.632935
0.629578
0.626526
0.624695
0.620728
0.618591
0.615234
0.611877
0.609436
0.606079
0.602722
0.600281
0.596619
0.593872
0.589905
0.586548
0.584106
0.579224
0.576782
0.572815
0.569763
0.566101
0.562744
0.559082
0.55603
0.552673
0.549622
0.54657
0.543213
0.539246
0.535583
0.533447
0.53009
0.527344
0.523987
0.521545
0.518188
0.515747
0.51239
0.509644
0.506592
0.503845
0.502014
0.499268
0.497131
0.494385
0.493164
0.490723
0.488586
0.48645
0.484314
0.484009
0.481873
0.480347
0.478516
0.47699
0.476074
0.475159
0.473938
0.473328
0.472412
0.470886
0.471191
0.469971
0.469971
0.46936
0.469055
0.46814
0.46936
0.469055
0.469055
0.469055
0.46936
0.469055
0.46936
0.469666
0.470581
0.470581
0.470581
0.471497
0.472412
0.472412
0.473938
0.474243
0.476074
0.476379
0.477295
0.478516
0.480042
0.480652
0.482178
0.483704
0.485229
0.485229
0.48645
0.488586
0.489197
0.490417
0.492554
0.492859
0.494385
0.494995
0.496216
0.497742
0.498962
0.499878
0.502014
0.502319
0.503845
0.504761
0.505676
0.506897
0.508118
0.508118
0.509338
0.510254
0.511169
0.511475
0.512085
0.512695
0.513
0.513916
0.513916
0.514526
0.515137
0.515442
0.515747
0.515747
0.516357
0.516357
0.516663
0.516052
0.516968
0.515442
0.515442
0.515747
0.514832
0.514832
0.514221
0.514221
0.514221
0.514221
0.51239
0.512695
0.512085
0.511169
0.509949
0.509949
0.509033
0.508423
0.507812
0.506897
0.505676
0.504761
0.504761
0.50293
0.501404
0.500793
0.499878
0.498657
0.497131
0.496521
0.4953
0.492859
0.493164
0.491028
0.490112
0.487671
0.486755
0.485535
0.483704
0.481873
0.480957
0.478821
0.4776
0.475769
0.473633
0.472412
0.470276
0.46875
0.466614
0.465698
0.463257
0.461426
0.459595
0.458069
0.456238
0.454712
0.452576
0.45105
0.449829
0.447083
0.445862
0.444031
0.44281
0.441284
0.438843
0.437317
0.435181
0.43396
0.432129
0.430298
0.428467
0.426331
0.42511
0.423279
0.421753
0.419922
0.419312
0.41748
0.415955
0.413513
0.411682
0.411072
0.408936
0.407715
0.406189
0.404358
0.402832
0.400696
0.399475
0.397949
0.396423
0.395508
0.394287
0.392456
0.391541
0.390015
0.389099
0.387878
0.386658
0.386047
0.384216
0.382996
0.381775
0.380859
0.379944
0.378723
0.377197
0.376892
0.375671
0.374451
0.374146
0.372925
0.372314
0.371094
0.370483
0.369873
0.369568
0.368652
0.367126
0.367126
0.367126
0.366516
0.365601
0.36499
0.36438
0.363464
0.362854
0.362244
0.361938
0.361633
0.361328
0.360107
0.360413
0.360413
0.360413
0.360107
0.359802
0.358887
0.358887
0.357971
0.358582
0.359192
0.358582
0.357666
0.357971
0.357056
0.357056
0.35675
0.35614
0.356445
0.355835
0.355835
0.355835
0.355835
0.355835
0.35553
0.355835
0.355835
0.35614
0.355835
0.355835
0.355835
0.35614
0.35553
0.35614
0.355835
0.355835
0.355835
0.35614
0.35614
0.35553
0.35553
0.35614
0.355835
0.356445
0.355835
0.355835
0.35614
0.355835
0.35614
0.35553
0.355225
0.35614
0.35553
0.35614
0.355835
0.355225
0.355225
0.354919
0.354919
0.354919
0.35553
0.355225
0.355225
0.354614
0.354919
0.35553
0.35553
0.355835
0.355225
0.35553
0.355225
0.355835
0.355835
0.356445
0.355225
0.354614
0.354919
0.354614
0.354309
0.353699
0.354614
0.354309
0.354919
0.354614
0.354309
0.354004
0.354309
0.354004
0.353394
0.354004
0.353699
0.353699
0.353394
0.353699
0.353394
0.352478
0.352783
0.353394
0.351868
0.352173
0.352478
0.352173
0.352173
0.352783
0.352478
0.353394
0.353394
0.353699
0.353394
0.353699
0.354309
0.354004
0.354004
0.354919
0.353699
0.354309
0.354614
0.354614
0.355225
0.355835
0.355835
0.35675
0.355835
0.35614
0.35675
0.356445
0.357361
0.357971
0.358276
0.358276
0.358582
0.359802
0.359497
0.360107
0.360107
0.361328
0.361328
0.362854
0.363159
0.36377
0.36438
0.36438
0.365295
0.366211
0.367126
0.367737
0.368652
0.369263
0.370483
0.371094
0.371094
0.37262
0.372925
0.373535
0.37384
0.374451
0.375366
0.375977
0.376282
0.377502
0.377808
0.378723
0.379639
0.380859
0.381165
0.38269
0.383606
0.384216
0.385132
0.387268
0.388184
0.389404
0.391235
0.393066
0.395508
0.396729
0.398254
0.401001
0.403442
0.405579
0.40802
0.410461
0.415039
0.417175
0.420532
0.423889
0.428467
0.431824
0.435791
0.439758
0.444946
0.450134
0.454712
0.4599
0.465088
0.470581
0.476685
0.483398
0.489502
0.495911
0.50354
0.51178
0.518494
0.525818
0.533752
0.542603
0.551453
0.559998
0.568848
0.577087
0.586853
0.596313
0.605469
0.61554
0.624695
0.63446
0.644836
0.654907
0.666199
0.675964
0.686646
0.697327
0.707397
0.718689
0.72937
0.739441
0.750427
0.761108
0.770874
0.782166
0.792236
0.802612
0.813293
0.823975
0.83313
0.843506
0.853577
0.862732
0.872498
0.882263
0.890503
0.899353
0.908203
0.916443
0.925293
0.932922
0.940247
0.948486
0.954895
0.96283
0.970154
0.975952
0.982361
0.988159
0.993347
0.99884
1.00372
1.0083
1.01349
1.01685
1.0199
1.02448
1.02722
1.03058
1.03302
1.03607
1.03851
1.04004
1.04095
1.04218
1.0434
1.0437
1.04401
1.04431
1.04431
1.04401
1.04279
1.04218
1.04095
1.03943
1.0379
1.03607
1.03333
1.03119
1.02936
1.02631
1.02356
1.02081
1.01746
1.0141
1.01105
1.00739
1.00311
0.999146
0.995178
0.991211
0.987244
0.983276
0.977478
0.9729
0.969238
0.964661
0.960388
0.95459
0.949707
0.944824
0.939636
0.935059
0.929871
0.925903
0.92041
0.914917
0.910034
0.905151
0.899353
0.895081
0.889893
0.88501
0.879517
0.875244
0.869446
0.864563
0.860596
0.854492
0.85022
0.845032
0.840759
0.835876
0.830994
0.826721
0.822144
0.817261
0.812988
0.808716
0.804138
0.800171
0.795288
0.791931
0.787048
0.782776
0.779419
0.775757
0.7724
0.767822
0.76416
0.760803
0.757751
0.754089
0.750122
0.74707
0.744324
0.741272
0.73822
0.735168
0.731201
0.727844
0.725708
0.722351
0.719299
0.716553
0.713196
0.711365
0.708618
0.705566
0.703125
0.700684
0.698242
0.69519
0.69397
0.690918
0.687561
0.685425
0.682983
0.680847
0.677185
0.675049
0.671692
0.669556
0.665283
0.663757
0.661011
0.657959
0.656433
0.653076
0.649719
0.648193
0.644836
0.642395
0.638733
0.635681
0.632629
0.629272
0.626831
0.624084
0.620728
0.61676
0.613098
0.610962
0.606995
0.603638
0.600281
0.596619
0.592957
0.5896
0.586243
0.583191
0.579834
0.576477
0.57312
0.569153
0.566406
0.562744
0.559998
0.555725
0.552673
0.549927
0.545959
0.542603
0.539551
0.536194
0.533142
0.528564
0.526428
0.523987
0.52063
0.518188
0.514832
0.513
0.509644
0.506592
0.505066
0.502014
0.499573
0.496826
0.495605
0.491943
0.490417
0.487976
0.48584
0.484314
0.482483
0.481262
0.479431
0.477905
0.476685
0.475464
0.474243
0.473328
0.472107
0.471802
0.470581
0.469971
0.46936
0.46936
0.468445
0.467529
0.467834
0.467224
0.467224
0.467224
0.466614
0.467224
0.466614
0.46814
0.46814
0.46814
0.468445
0.469055
0.469971
0.469666
0.470886
0.471497
0.472107
0.471497
0.473938
0.474548
0.475464
0.475769
0.4776
0.4776
0.479431
0.480042
0.481262
0.481873
0.483704
0.484009
0.484619
0.48645
0.487061
0.487671
0.489197
0.489502
0.491333
0.492249
0.492859
0.493774
0.49469
0.495605
0.496216
0.496521
0.498047
0.499573
0.499268
0.499878
0.500793
0.501709
0.502014
0.502319
0.502625
0.50354
0.50354
0.504761
0.504761
0.505371
0.504761
0.505371
0.505371
0.505066
0.505676
0.505371
0.505676
0.505676
0.505066
0.505676
0.504456
0.505371
0.505066
0.504761
0.505066
0.504761
0.503845
0.50415
0.50354
0.50293
0.502014
0.502014
0.502014
0.500793
0.500183
0.499878
0.499268
0.498352
0.497437
0.495605
0.495911
0.49469
0.494995
0.493164
0.492554
0.491333
0.490112
0.489502
0.487671
0.487061
0.484924
0.484009
0.482178
0.481262
0.479431
0.477905
0.476685
0.474854
0.473633
0.472412
0.470276
0.46936
0.467834
0.466309
0.464478
0.463867
0.462036
0.4599
0.458374
0.455933
0.454407
0.452576
0.45166
0.449524
0.448303
0.446777
0.444641
0.44342
0.441895
0.440369
0.438232
0.436096
0.434875
0.433044
0.431519
0.430298
0.428772
0.426941
0.426025
0.424194
0.422363
0.420837
0.418396
0.41687
0.415344
0.413513
0.411682
0.411377
0.40863
0.40802
0.406799
0.404358
0.403748
0.402222
0.401001
0.39917
0.397644
0.397034
0.394897
0.393066
0.392761
0.392151
0.39032
0.389404
0.387878
0.386658
0.385132
0.384521
0.38269
0.38269
0.38147
0.381165
0.379333
0.379028
0.378113
0.377197
0.375977
0.374756
0.374756
0.374146
0.372925
0.372314
0.371704
0.371094
0.370178
0.369568
0.368652
0.367737
0.367432
0.367737
0.366211
0.366516
0.365295
0.36499
0.36438
0.364075
0.364075
0.363464
0.362854
0.363159
0.362244
0.362854
0.361938
0.361328
0.361023
0.361328
0.360413
0.360107
0.359497
0.359802
0.359802
0.359497
0.359802
0.360107
0.359497
0.359497
0.359497
0.359497
0.359497
0.360107
0.358887
0.359192
0.358887
0.359802
0.359802
0.359497
0.358582
0.358887
0.358887
0.359192
0.358582
0.359802
0.359497
0.359497
0.359802
0.359802
0.359802
0.359802
0.359497
0.359192
0.359192
0.359497
0.359802
0.359497
0.359497
0.359802
0.359802
0.359802
0.359192
0.359192
0.359497
0.359192
0.359192
0.358887
0.358887
0.358276
0.358582
0.358276
0.358276
0.357971
0.357666
0.357056
0.357361
0.35675
0.357361
0.35675
0.35675
0.35675
0.355225
0.356445
0.35614
0.35614
0.35614
0.355835
0.35553
0.355835
0.355225
0.35553
0.355225
0.354919
0.355225
0.353699
0.354614
0.354004
0.354004
0.354004
0.353394
0.353699
0.352783
0.352478
0.351868
0.352173
0.351868
0.351868
0.352173
0.351562
0.351868
0.351868
0.351562
0.351257
0.350952
0.352173
0.351562
0.351257
0.351562
0.350952
0.350647
0.350647
0.350342
0.351257
0.350952
0.351562
0.350647
0.351562
0.351562
0.351562
0.351257
0.351257
0.352173
0.351257
0.352478
0.351868
0.352173
0.352478
0.351868
0.353088
0.353394
0.353699
0.353699
0.353394
0.354004
0.35553
0.355225
0.355225
0.35553
0.355835
0.356445
0.357056
0.357056
0.357361
0.357666
0.358276
0.358887
0.358887
0.360107
0.359802
0.360107
0.361023
0.361938
0.361938
0.361938
0.363159
0.363159
0.36377
0.364685
0.36499
0.365295
0.366211
0.366821
0.367432
0.367126
0.368042
0.369263
0.369568
0.369568
0.370178
0.371094
0.37262
0.373535
0.374146
0.375671
0.377197
0.378723
0.379639
0.381775
0.383301
0.385132
0.386963
0.389099
0.391541
0.393677
0.395813
0.39856
0.401306
0.404663
0.407715
0.411377
0.415039
0.418701
0.422668
0.427856
0.431519
0.437317
0.441589
0.447083
0.453491
0.45929
0.464783
0.471191
0.476685
0.484619
0.491638
0.498962
0.505676
0.513611
0.521545
0.529785
0.538635
0.546875
0.555725
0.565491
0.575256
0.583801
0.593567
0.603333
0.613708
0.623779
0.633545
0.643616
0.653687
0.664673
0.674744
0.685425
0.695801
0.706482
0.717468
0.727844
0.738525
0.749817
0.760193
0.770569
0.780945
0.792847
0.802002
0.812378
0.822449
0.83313
0.842285
0.852356
0.861816
0.870361
0.880127
0.888672
0.896606
0.905457
0.913086
0.921936
0.929565
0.935974
0.943909
0.950928
0.958252
0.964355
0.970459
0.975952
0.982056
0.986633
0.992126
0.997009
1.00159
1.00525
1.0083
1.01318
1.01562
1.01837
1.02081
1.02295
1.02539
1.02661
1.02875
1.02936
1.03088
1.03119
1.03119
1.0318
1.03241
1.0318
1.02997
1.02997
1.02875
1.02692
1.02539
1.02386
1.02203
1.01959
1.01654
1.0144
1.01166
1.00861
1.00494
1.00189
0.998535
0.995483
0.991821
0.988464
0.984497
0.979919
0.975342
0.971985
0.967102
0.96283
0.957947
0.952759
0.947876
0.943298
0.938416
0.933838
0.928345
0.924072
0.9198
0.914001
0.908203
0.90332
0.898132
0.894165
0.888977
0.882874
0.878296
0.873413
0.868835
0.863342
0.858154
0.853271
0.848389
0.843201
0.838318
0.83374
0.828247
0.82489
0.820007
0.815735
0.810852
0.806274
0.801697
0.798035
0.793457
0.788574
0.784912
0.780945
0.776978
0.773315
0.769043
0.765991
0.761719
0.758057
0.7547
0.751038
0.747375
0.744629
0.741882
0.737915
0.734253
0.732117
0.72937
0.725403
0.722961
0.719604
0.716858
0.714111
0.711365
0.708923
0.706177
0.704346
0.701294
0.699158
0.696106
0.693665
0.690918
0.688782
0.685425
0.683899
0.681458
0.679321
0.67688
0.674438
0.671997
0.669861
0.667114
0.664368
0.662231
0.660095
0.657349
0.654602
0.652466
0.649719
0.646362
0.643311
0.640869
0.638123
0.635376
0.632629
0.629578
0.626831
0.622864
0.620422
0.617371
0.614014
0.610962
0.60791
0.603943
0.600891
0.596924
0.592957
0.590515
0.586243
0.583191
0.579224
0.576172
0.571899
0.568542
0.565491
0.561829
0.558167
0.555115
0.550842
0.548096
0.545044
0.541687
0.53833
0.534973
0.531616
0.528259
0.525818
0.522461
0.519409
0.516052
0.512695
0.510254
0.507507
0.505066
0.502319
0.499573
0.497742
0.494995
0.492554
0.490112
0.487671
0.486145
0.484924
0.481567
0.480042
0.477905
0.476685
0.474854
0.474243
0.471497
0.470886
0.46936
0.46814
0.467224
0.466614
0.465698
0.464172
0.463562
0.462646
0.462341
0.462036
0.461121
0.460815
0.461121
0.461121
0.460815
0.461426
0.460815
0.46051
0.460815
0.46051
0.461426
0.461426
0.461731
0.461731
0.462036
0.462952
0.462952
0.463867
0.464478
0.464783
0.466614
0.466309
0.467224
0.466919
0.46875
0.469055
0.470276
0.470581
0.471191
0.472412
0.473022
0.473633
0.474548
0.475159
0.476685
0.476685
0.477295
0.478516
0.479736
0.479431
0.480652
0.480652
0.481873
0.482178
0.482178
0.482483
0.482483
0.483398
0.484314
0.484314
0.484924
0.485535
0.485229
0.48645
0.48645
0.486145
0.48645
0.486145
0.487061
0.487366
0.487671
0.487366
0.487061
0.487061
0.487061
0.487061
0.486755
0.48645
0.487366
0.486755
0.48584
0.485535
0.48584
0.485535
0.484619
0.484619
0.484314
0.483093
0.482788
0.481873
0.480957
0.481567
0.481262
0.480042
0.478821
0.478516
0.477905
0.476379
0.475769
0.475769
0.474243
0.473022
0.472107
0.470886
0.469666
0.46875
0.467224
0.466003
0.464478
0.462952
0.461731
0.460815
0.460205
0.458069
0.457153
0.454712
0.453796
0.451965
0.450745
0.449219
0.447083
0.446167
0.444031
0.443726
0.441895
0.440369
0.438843
0.437012
0.435181
0.43457
0.433655
0.430908
0.429688
0.428467
0.426941
0.42572
0.423584
0.422668
0.421143
0.419006
0.417786
0.415649
0.413818
0.412903
0.410767
0.409546
0.40741
0.404968
0.404358
0.402527
0.401001
0.39917
0.39856
0.396423
0.395203
0.393677
0.391846
0.390015
0.389709
0.387573
0.385742
0.385437
0.383301
0.38269
0.380859
0.379944
0.378418
0.377808
0.376282
0.374756
0.37384
0.372314
0.371094
0.370483
0.368347
0.368042
0.366821
0.366211
0.365601
0.36438
0.362854
0.362549
0.361023
0.360718
0.359802
0.359192
0.358276
0.357971
0.35675
0.356445
0.356445
0.354919
0.355225
0.354309
0.353088
0.353394
0.352478
0.351562
0.351257
0.350952
0.351257
0.350037
0.349731
0.348816
0.349121
0.349426
0.349121
0.348511
0.348206
0.347595
0.348511
0.3479
0.348206
0.347595
0.348511
0.346985
0.34729
0.34729
0.347595
0.34729
0.34729
0.346985
0.34668
0.347595
0.346985
0.347595
0.347595
0.346985
0.34729
0.346985
0.3479
0.347595
0.34729
0.347595
0.347595
0.34729
0.346985
0.347595
0.346985
0.346985
0.346985
0.34668
0.346985
0.34668
0.346985
0.347595
0.346375
0.34668
0.346985
0.346985
0.346985
0.34668
0.346985
0.346985
0.346375
0.346375
0.34668
0.346985
0.346375
0.346375
0.346375
0.34668
0.34729
0.346375
0.34668
0.345764
0.34668
0.346069
0.346069
0.346375
0.345154
0.345764
0.346375
0.345764
0.345764
0.345764
0.345764
0.345764
0.344543
0.345459
0.344849
0.344849
0.345154
0.345459
0.344238
0.345154
0.344849
0.343933
0.344543
0.344543
0.344238
0.344238
0.344238
0.343933
0.343933
0.344543
0.343628
0.344238
0.343323
0.343628
0.343628
0.343323
0.343323
0.343323
0.343933
0.343628
0.343323
0.343323
0.343323
0.342407
0.342712
0.343323
0.342102
0.341797
0.341797
0.341187
0.342102
0.341797
0.341187
0.341187
0.340881
0.341187
0.341797
0.340881
0.340881
0.341492
0.341187
0.340576
0.340881
0.341187
0.341492
0.341492
0.340881
0.341797
0.341187
0.342102
0.342102
0.342407
0.342407
0.342407
0.342712
0.343628
0.343323
0.343933
0.344543
0.345154
0.345154
0.345764
0.346375
0.346985
0.346985
0.348206
0.348206
0.348816
0.349121
0.350647
0.350037
0.351868
0.352173
0.352478
0.353394
0.354309
0.354614
0.354614
0.35614
0.35675
0.357056
0.357971
0.358887
0.358582
0.359192
0.360413
0.359802
0.361938
0.361938
0.362244
0.36377
0.36377
0.36499
0.365601
0.367126
0.367432
0.368652
0.369263
0.369873
0.371704
0.372925
0.373535
0.375366
0.376587
0.376587
0.379028
0.381165
0.382996
0.385132
0.387268
0.389099
0.391235
0.394592
0.397034
0.39978
0.403137
0.406189
0.410461
0.413818
0.418091
0.422363
0.426636
0.431519
0.436401
0.441284
0.447083
0.453186
0.458984
0.465088
0.471497
0.4776
0.48584
0.491638
0.500183
0.508423
0.515442
0.523682
0.533142
0.542603
0.550842
0.559692
0.569763
0.579224
0.589905
0.599365
0.609741
0.620422
0.631104
0.641479
0.652771
0.663757
0.674744
0.68573
0.697021
0.707703
0.719299
0.731201
0.742798
0.753479
0.765381
0.776367
0.787659
0.798645
0.810547
0.820618
0.831604
0.842896
0.853271
0.863342
0.873718
0.884094
0.89386
0.90332
0.913086
0.922241
0.931396
0.940247
0.948792
0.957336
0.965576
0.971985
0.980225
0.987549
0.994263
1.00067
1.00708
1.01227
1.01929
1.02325
1.02814
1.03241
1.03668
1.04034
1.04401
1.04614
1.04828
1.05164
1.05286
1.05591
1.05621
1.05835
1.05896
1.05957
1.05896
1.05927
1.05835
1.05774
1.05713
1.0556
1.05438
1.05225
1.04889
1.04767
1.04553
1.04187
1.03851
1.03607
1.03241
1.02905
1.02509
1.02142
1.01776
1.01379
1.00952
1.00494
1.00128
0.996399
0.990906
0.985413
0.98053
0.975037
0.969849
0.965576
0.960388
0.954285
0.948792
0.943909
0.938416
0.933228
0.92804
0.922241
0.916443
0.911255
0.905762
0.900574
0.894775
0.888672
0.882874
0.877991
0.872498
0.867004
0.862427
0.856323
0.85083
0.846252
0.84137
0.836182
0.830994
0.825806
0.821228
0.81604
0.811768
0.806885
0.801697
0.797729
0.793152
0.789185
0.785217
0.78064
0.776672
0.772705
0.768433
0.764465
0.760193
0.757751
0.753479
0.750122
0.74646
0.743103
0.740051
0.736694
0.733948
0.72998
0.727844
0.724182
0.721741
0.718994
0.715637
0.713196
0.710449
0.708008
0.704651
0.702209
0.700378
0.697327
0.695496
0.692749
0.690308
0.688171
0.68573
0.682983
0.680237
0.679321
0.675964
0.673218
0.671387
0.669861
0.666199
0.663757
0.661926
0.65979
0.657043
0.653992
0.65155
0.649109
0.646362
0.643616
0.641479
0.638428
0.635681
0.633545
0.629883
0.628052
0.62439
0.621033
0.617676
0.61554
0.612183
0.608826
0.606079
0.601807
0.59906
0.595703
0.592041
0.588379
0.585938
0.582275
0.579224
0.575562
0.57251
0.569458
0.56488
0.562134
0.558472
0.555115
0.551758
0.547791
0.545044
0.541687
0.53833
0.534973
0.531006
0.527649
0.524902
0.521851
0.519409
0.516357
0.513611
0.510864
0.508118
0.505676
0.502625
0.500488
0.498047
0.4953
0.494385
0.491333
0.489197
0.486755
0.485535
0.482483
0.481262
0.480042
0.477905
0.475769
0.474854
0.473633
0.472412
0.472107
0.470276
0.46936
0.469055
0.468445
0.467224
0.467834
0.466309
0.465393
0.465088
0.465393
0.465088
0.465088
0.464478
0.465088
0.464172
0.464478
0.465393
0.465088
0.465698
0.465698
0.466003
0.466614
0.466614
0.467224
0.46875
0.46875
0.46875
0.46936
0.470581
0.470886
0.471497
0.472107
0.473022
0.473938
0.474548
0.475159
0.476074
0.477295
0.478516
0.478516
0.480042
0.480347
0.480652
0.482178
0.483093
0.483704
0.484009
0.484619
0.484924
0.48584
0.487061
0.487366
0.488281
0.488281
0.488892
0.489502
0.490112
0.491333
0.491333
0.492249
0.492859
0.492249
0.493774
0.493774
0.49469
0.493774
0.49408
0.49408
0.49408
0.494385
0.494995
0.49469
0.494385
0.49408
0.49408
0.49408
0.493469
0.494385
0.49408
0.493164
0.492554
0.492554
0.492859
0.491943
0.491638
0.490723
0.490417
0.490112
0.488586
0.487366
0.487061
0.486145
0.485229
0.483704
0.483398
0.482788
0.481262
0.480347
0.479431
0.479126
0.4776
0.47699
0.475769
0.473938
0.473022
0.472107
0.470276
0.46875
0.467834
0.466919
0.465393
0.463867
0.462952
0.46051
0.45929
0.458069
0.456848
0.455322
0.452881
0.452576
0.450439
0.449219
0.447998
0.446167
0.444946
0.442505
0.441589
0.439758
0.438232
0.436401
0.435181
0.43396
0.431519
0.430298
0.428162
0.427246
0.424805
0.423889
0.422058
0.420227
0.419006
0.417175
0.415344
0.414124
0.412292
0.411377
0.409546
0.407715
0.405884
0.403748
0.402832
0.401001
0.399475
0.397644
0.396423
0.394287
0.393372
0.391846
0.390625
0.388794
0.387268
0.386047
0.383911
0.383301
0.38147
0.380249
0.378418
0.377197
0.376282
0.374451
0.37323
0.37262
0.371094
0.369568
0.368652
0.367432
0.365906
0.365601
0.364685
0.36377
0.362244
0.360413
0.360413
0.359192
0.358276
0.357361
0.357056
0.35553
0.354309
0.353699
0.353394
0.352173
0.351868
0.350647
0.349426
0.349731
0.348511
0.348511
0.347595
0.346985
0.346069
0.345154
0.344849
0.345459
0.344543
0.343628
0.343933
0.343018
0.342102
0.341797
0.342407
0.341797
0.341797
0.340881
0.340881
0.340576
0.340271
0.340576
0.339355
0.339661
0.339661
0.339661
0.339966
0.339661
0.339661
0.339661
0.33905
0.339355
0.339355
0.33905
0.33905
0.339355
0.33905
0.339355
0.339661
0.338745
0.339966
0.339355
0.339661
0.340271
0.339966
0.340271
0.339966
0.340576
0.339355
0.340271
0.33905
0.340271
0.339966
0.339966
0.339661
0.33844
0.339355
0.33905
0.33905
0.33905
0.339966
0.339966
0.338745
0.33844
0.339355
0.339355
0.338745
0.339966
0.33905
0.339661
0.33905
0.33905
0.33905
0.338135
0.338745
0.338745
0.339355
0.33844
0.338745
0.338745
0.338135
0.338135
0.33844
0.338135
0.33844
0.33844
0.337524
0.338745
0.338745
0.33844
0.337524
0.338745
0.336914
0.337524
0.338135
0.336914
0.336914
0.335999
0.336914
0.336914
0.335999
0.335999
0.336609
0.335693
0.336609
0.335693
0.335693
0.335083
0.335388
0.334473
0.334778
0.334778
0.334778
0.334473
0.334473
0.334167
0.334167
0.333862
0.333862
0.332947
0.333557
0.333862
0.332947
0.332947
0.332947
0.332947
0.333557
0.332947
0.332642
0.332947
0.332947
0.332642
0.333252
0.333862
0.332947
0.333557
0.332947
0.333557
0.334167
0.333862
0.333557
0.334473
0.335083
0.334778
0.334778
0.335083
0.335693
0.336304
0.335693
0.335999
0.337219
0.337219
0.338135
0.337524
0.338745
0.338135
0.33844
0.338745
0.339355
0.339661
0.339966
0.340271
0.340271
0.340576
0.342102
0.342102
0.342712
0.342712
0.343323
0.343018
0.343628
0.343933
0.344238
0.344849
0.345154
0.345764
0.346069
0.34668
0.346375
0.346985
0.347595
0.3479
0.348511
0.348816
0.349731
0.349731
0.350037
0.350952
0.351868
0.352478
0.352783
0.353394
0.353394
0.354004
0.35553
0.35553
0.356445
0.357361
0.358582
0.358887
0.360718
0.361328
0.362854
0.364075
0.366211
0.367126
0.368347
0.371399
0.372925
0.37384
0.377197
0.378723
0.381775
0.383606
0.386658
0.389404
0.392761
0.396423
0.39917
0.402832
0.407104
0.411987
0.416565
0.421448
0.427246
0.431213
0.437012
0.442505
0.449829
0.455627
0.462646
0.469055
0.475769
0.483398
0.490112
0.498352
0.506897
0.513916
0.523071
0.531006
0.540771
0.549622
0.558777
0.568542
0.577698
0.588074
0.598145
0.60791
0.617981
0.628052
0.638428
0.649414
0.65979
0.671082
0.680847
0.691528
0.702209
0.713501
0.724487
0.734558
0.74646
0.756836
0.766602
0.777283
0.787659
0.798645
0.808411
0.818176
0.827942
0.838013
0.847778
0.857544
0.866089
0.875244
0.884399
0.892944
0.901184
0.910645
0.918884
0.925598
0.933533
0.941162
0.948792
0.954285
0.961609
0.968018
0.973511
0.978699
0.985107
0.98999
0.993958
0.999146
1.00281
1.00616
1.00922
1.01257
1.01562
1.01776
1.02051
1.02203
1.02325
1.02448
1.026
1.02692
1.02753
1.02783
1.02783
1.02783
1.02692
1.0257
1.02448
1.02356
1.02203
1.0202
1.01776
1.01593
1.0144
1.01166
1.0083
1.00555
1.00311
0.999756
0.996399
0.993042
0.98877
0.986023
0.982361
0.978699
0.974121
0.969849
0.965881
0.960999
0.957031
0.952759
0.947571
0.943298
0.939331
0.933228
0.92865
0.923767
0.918884
0.913391
0.909119
0.903931
0.898743
0.89386
0.889282
0.884705
0.879211
0.874634
0.868225
0.864868
0.859375
0.854492
0.848999
0.844421
0.839844
0.834656
0.829468
0.8255
0.820618
0.81543
0.811157
0.80719
0.802307
0.798645
0.793457
0.789185
0.785522
0.78125
0.776978
0.77301
0.768738
0.764771
0.760498
0.757141
0.753479
0.749207
0.74646
0.742493
0.739136
0.736389
0.733337
0.72998
0.726624
0.723877
0.720825
0.718079
0.715332
0.711365
0.708923
0.706482
0.704041
0.700989
0.698242
0.695496
0.692139
0.690002
0.687561
0.684814
0.682068
0.680237
0.677795
0.675049
0.672913
0.670166
0.667419
0.664978
0.662537
0.65979
0.657349
0.654602
0.65155
0.649109
0.646362
0.643616
0.640259
0.637512
0.635071
0.632324
0.628967
0.625305
0.622864
0.620117
0.615845
0.613098
0.610046
0.6073
0.604248
0.599976
0.596619
0.593567
0.59021
0.586243
0.584106
0.580139
0.576782
0.57312
0.569763
0.566101
0.563965
0.560303
0.556946
0.553589
0.550232
0.547791
0.544128
0.541077
0.538025
0.535278
0.532532
0.52887
0.525818
0.523987
0.520325
0.519104
0.515747
0.513
0.510254
0.507812
0.505066
0.502625
0.501099
0.498962
0.496826
0.495605
0.493469
0.491028
0.490112
0.487061
0.48584
0.484009
0.482483
0.481567
0.480042
0.478821
0.47699
0.476074
0.475159
0.475159
0.473938
0.473328
0.472412
0.473022
0.473022
0.471802
0.472107
0.471802
0.471497
0.472412
0.472107
0.472107
0.473022
0.472717
0.472717
0.473022
0.473328
0.474548
0.475464
0.475769
0.476379
0.477295
0.477905
0.478821
0.479126
0.480042
0.481567
0.481873
0.483398
0.484314
0.485229
0.48645
0.487061
0.488586
0.489502
0.489807
0.491333
0.492554
0.493164
0.49469
0.4953
0.495911
0.497742
0.498352
0.499268
0.500183
0.501709
0.50293
0.50354
0.504761
0.505981
0.506287
0.506592
0.507812
0.509033
0.509949
0.509949
0.510864
0.512085
0.51239
0.513
0.514221
0.513916
0.514832
0.515442
0.516663
0.516663
0.516968
0.517578
0.517883
0.517578
0.518188
0.517273
0.517883
0.517883
0.516968
0.517578
0.516663
0.516968
0.516357
0.516663
0.516968
0.516357
0.515442
0.515137
0.514526
0.513611
0.513306
0.513611
0.512085
0.511475
0.510254
0.509644
0.508423
0.507507
0.506592
0.505371
0.505066
0.50354
0.50293
0.501404
0.500793
0.499878
0.498657
0.496826
0.494995
0.49408
0.493774
0.491638
0.490112
0.489197
0.488281
0.48584
0.484619
0.483398
0.481567
0.480042
0.477905
0.476685
0.475769
0.473633
0.471497
0.470581
0.46875
0.467224
0.465393
0.464172
0.462036
0.460205
0.45929
0.455627
0.454407
0.452576
0.450745
0.448608
0.447083
0.444946
0.44281
0.440979
0.439453
0.437622
0.435791
0.433655
0.433044
0.430603
0.428467
0.426941
0.42511
0.422974
0.421753
0.419922
0.418701
0.417175
0.415039
0.413513
0.411987
0.410461
0.408936
0.406799
0.406189
0.404358
0.403442
0.401306
0.400391
0.39917
0.397644
0.396729
0.395203
0.394897
0.392761
0.391541
0.390625
0.389404
0.388794
0.387573
0.385132
0.384521
0.382996
0.382996
0.381165
0.380859
0.379639
0.379028
0.378418
0.376892
0.376282
0.375366
0.374451
0.37384
0.372009
0.372314
0.372314
0.371094
0.369873
0.369873
0.368347
0.368347
0.367126
0.366516
0.366211
0.365906
0.364685
0.365295
0.36438
0.36438
0.36377
0.363464
0.362244
0.362549
0.361328
0.361938
0.361633
0.361023
0.360413
0.360413
0.360107
0.359497
0.359802
0.359802
0.358887
0.358887
0.358582
0.358887
0.359192
0.358887
0.358582
0.358887
0.358887
0.358582
0.358276
0.358276
0.358582
0.358276
0.358276
0.357666
0.357666
0.358276
0.357361
0.357666
0.357666
0.357666
0.357056
0.357361
0.35675
0.357361
0.357056
0.357971
0.357361
0.35675
0.357361
0.35675
0.35675
0.35614
0.355225
0.35553
0.35553
0.355225
0.354919
0.355225
0.354614
0.354309
0.354004
0.353699
0.353394
0.352783
0.353088
0.353088
0.352173
0.352478
0.351257
0.351562
0.350647
0.351257
0.351257
0.350952
0.350037
0.349731
0.349731
0.348816
0.349121
0.348816
0.348511
0.348206
0.347595
0.347595
0.346985
0.347595
0.3479
0.346985
0.34668
0.346375
0.345764
0.34668
0.344543
0.344849
0.345459
0.343628
0.344238
0.344238
0.343018
0.342712
0.342712
0.342102
0.341797
0.342712
0.342407
0.341187
0.340881
0.340576
0.340881
0.340271
0.340576
0.339966
0.339661
0.339661
0.339966
0.33905
0.33905
0.33905
0.33905
0.33905
0.338745
0.338745
0.33844
0.339966
0.33844
0.338745
0.338745
0.338745
0.33905
0.339966
0.339966
0.33905
0.339355
0.339355
0.339355
0.340271
0.339966
0.340271
0.340576
0.340576
0.341187
0.340881
0.342102
0.341797
0.342407
0.342407
0.341797
0.342407
0.343323
0.343628
0.343628
0.343628
0.344543
0.345154
0.344543
0.344238
0.345459
0.345459
0.345459
0.346069
0.34668
0.34668
0.347595
0.348206
0.34729
0.348511
0.348511
0.348816
0.349121
0.349731
0.350037
0.351257
0.351868
0.352173
0.353394
0.353394
0.354004
0.355225
0.35553
0.357056
0.358276
0.359802
0.360718
0.361938
0.36377
0.364685
0.366821
0.369263
0.370789
0.37323
0.375671
0.377808
0.380859
0.382996
0.386658
0.390625
0.393372
0.397644
0.401306
0.404968
0.410767
0.414429
0.419922
0.425415
0.430298
0.436096
0.441284
0.447998
0.454407
0.461731
0.46814
0.475769
0.482178
0.490723
0.498657
0.506287
0.515137
0.523682
0.533142
0.541687
0.550842
0.560608
0.570374
0.580444
0.5896
0.59967
0.610352
0.621033
0.631714
0.641174
0.651855
0.662537
0.673218
0.684204
0.69458
0.705261
0.716248
0.727844
0.73822
0.748901
0.758972
0.769653
0.780945
0.791626
0.801697
0.811462
0.821838
0.832214
0.841675
0.852051
0.861816
0.870972
0.879517
0.888977
0.897217
0.905151
0.913696
0.921326
0.92865
0.93689
0.943298
0.950317
0.957031
0.962219
0.969238
0.974426
0.979919
0.985107
0.990295
0.994568
0.998535
1.00281
1.00555
1.00891
1.01227
1.01501
1.01685
1.01868
1.02081
1.02234
1.02417
1.02448
1.02539
1.02631
1.02631
1.02509
1.02448
1.02417
1.02295
1.02295
1.02112
1.01959
1.01776
1.01562
1.01257
1.01105
1.008
1.00494
1.00189
0.99823
0.995483
0.991821
0.987549
0.984192
0.979919
0.975952
0.971985
0.967407
0.96283
0.959167
0.953979
0.949402
0.944519
0.939331
0.935364
0.929871
0.924072
0.920105
0.914917
0.909119
0.90332
0.898438
0.892334
0.887451
0.882568
0.87616
0.871582
0.866089
0.860901
0.855713
0.849609
0.844727
0.838928
0.834351
0.828247
0.823669
0.818176
0.812683
0.8078
0.802917
0.798035
0.792847
0.788269
0.784302
0.780029
0.774841
0.769958
0.765381
0.762024
0.756531
0.751648
0.747986
0.744019
0.739441
0.735779
0.732117
0.727539
0.723877
0.71991
0.716248
0.71228
0.708923
0.705872
0.702209
0.699158
0.697327
0.693665
0.690002
0.687256
0.684814
0.682068
0.678406
0.67627
0.673218
0.670776
0.667419
0.665283
0.662231
0.660095
0.656433
0.654297
0.651245
0.649109
0.645447
0.6427
0.641174
0.637817
0.635071
0.632324
0.629883
0.626526
0.62439
0.621033
0.617371
0.614624
0.611877
0.608826
0.605774
0.602722
0.59906
0.596924
0.593567
0.59021
0.587158
0.584106
0.581055
0.577393
0.574646
0.570984
0.568848
0.563965
0.561523
0.557861
0.554199
0.550842
0.54718
0.543518
0.541077
0.537415
0.533752
0.530701
0.528259
0.524597
0.521851
0.518494
0.515442
0.513306
0.509949
0.506897
0.503845
0.500183
0.498962
0.4953
0.492859
0.489807
0.488281
0.48584
0.483093
0.481262
0.478821
0.477295
0.476685
0.474243
0.472717
0.470276
0.469666
0.46814
0.467529
0.466003
0.465088
0.463257
0.462646
0.461121
0.461121
0.46051
0.4599
0.45929
0.458679
0.458984
0.458984
0.458679
0.45929
0.45929
0.458984
0.460205
0.460815
0.460815
0.462341
0.462341
0.462646
0.462952
0.464478
0.465393
0.466003
0.466919
0.467834
0.469055
0.469666
0.470581
0.472412
0.473633
0.474243
0.475769
0.477905
0.47821
0.479736
0.482178
0.483093
0.484314
0.486145
0.486145
0.488281
0.489502
0.490417
0.491638
0.493774
0.4953
0.496826
0.497131
0.498962
0.500793
0.502319
0.50354
0.504456
0.505676
0.507202
0.507812
0.509033
0.510864
0.511169
0.51239
0.513306
0.514832
0.514832
0.515747
0.517578
0.516968
0.518188
0.519409
0.519409
0.519714
0.52063
0.520935
0.520935
0.52124
0.521545
0.522156
0.521851
0.521545
0.521545
0.522156
0.521851
0.520935
0.52124
0.52063
0.519714
0.519714
0.519104
0.518799
0.518799
0.516663
0.516357
0.515747
0.515137
0.514221
0.513611
0.51239
0.51178
0.510559
0.509949
0.508423
0.507812
0.505676
0.505676
0.503845
0.502319
0.500793
0.500183
0.498657
0.497131
0.496521
0.49469
0.493774
0.492554
0.491638
0.489502
0.487671
0.486145
0.484314
0.484009
0.480652
0.479736
0.477905
0.476074
0.474243
0.472717
0.470276
0.469055
0.467834
0.465393
0.463867
0.461426
0.460815
0.458374
0.456848
0.454712
0.453186
0.45166
0.449524
0.447693
0.444946
0.44342
0.440979
0.438843
0.437317
0.435791
0.433655
0.431824
0.429993
0.427551
0.426331
0.4245
0.422668
0.420227
0.419312
0.417786
0.415955
0.414124
0.412598
0.410461
0.40863
0.407104
0.406189
0.404358
0.401917
0.401001
0.39978
0.398254
0.396118
0.394897
0.394287
0.392761
0.391235
0.390015
0.388489
0.387268
0.386353
0.385437
0.383911
0.38208
0.38147
0.380554
0.379333
0.378723
0.377502
0.376587
0.375366
0.373535
0.37323
0.371704
0.370483
0.369568
0.369568
0.368347
0.368347
0.366821
0.366211
0.365295
0.364685
0.363464
0.363464
0.363159
0.361938
0.361938
0.361023
0.361023
0.360413
0.358887
0.358887
0.358887
0.357361
0.357971
0.357971
0.357361
0.357666
0.356445
0.35675
0.35675
0.356445
0.35675
0.35614
0.35553
0.355835
0.35553
0.35553
0.355835
0.355225
0.35553
0.354919
0.354919
0.354919
0.354614
0.354309
0.354919
0.354919
0.354919
0.355225
0.354919
0.354614
0.354309
0.354614
0.354309
0.354004
0.354004
0.354919
0.354309
0.354309
0.353699
0.354004
0.353394
0.354919
0.353394
0.354004
0.353699
0.353088
0.352783
0.353088
0.353699
0.353394
0.353088
0.352783
0.353394
0.353394
0.354004
0.352478
0.353088
0.352173
0.353088
0.352478
0.352173
0.352478
0.353394
0.351868
0.353088
0.352173
0.353088
0.352783
0.352478
0.352783
0.352783
0.352783
0.352478
0.352783
0.352478
0.351868
0.352173
0.351257
0.351868
0.351868
0.351257
0.350952
0.350952
0.351562
0.351257
0.350952
0.350952
0.350037
0.351257
0.349731
0.350952
0.350342
0.350342
0.350342
0.350037
0.350342
0.349731
0.349121
0.350037
0.350037
0.350037
0.349731
0.349426
0.350342
0.349426
0.350342
0.350037
0.350037
0.349731
0.350037
0.350647
0.350647
0.351257
0.350647
0.350952
0.351257
0.351562
0.351257
0.352478
0.352783
0.352783
0.352783
0.353699
0.353394
0.354004
0.354919
0.354919
0.354919
0.355835
0.356445
0.357056
0.357056
0.357971
0.358276
0.358887
0.357971
0.359497
0.359802
0.361023
0.360718
0.361633
0.362549
0.363159
0.364685
0.364075
0.36499
0.365295
0.365295
0.366211
0.367126
0.368347
0.368652
0.369263
0.369873
0.370483
0.370178
0.371704
0.372009
0.372925
0.37384
0.374451
0.375671
0.376587
0.378113
0.379028
0.379944
0.381775
0.383301
0.384216
0.386353
0.388184
0.389709
0.392151
0.394287
0.396423
0.398865
0.402222
0.404968
0.407715
0.411072
0.414429
0.418396
0.421753
0.426025
0.430603
0.435181
0.439148
0.444641
0.450439
0.455627
0.460815
0.466309
0.473938
0.480042
0.48645
0.493774
0.501099
0.509033
0.515747
0.523987
0.532532
0.541077
0.549622
0.557861
0.567627
0.576477
0.585327
0.595703
0.605469
0.614929
0.62439
0.634766
0.645447
0.655823
0.665588
0.675964
0.687256
0.697632
0.707092
0.717773
0.729065
0.739441
0.750427
0.760498
0.770569
0.78125
0.791321
0.801086
0.811768
0.821228
0.830994
0.840454
0.85022
0.859375
0.86853
0.877075
0.88562
0.89386
0.901794
0.910645
0.918579
0.925293
0.933228
0.940552
0.947266
0.953674
0.960083
0.966187
0.971375
0.977173
0.982056
0.986328
0.990601
0.994873
0.99823
1.00189
1.00525
1.00891
1.01105
1.01257
1.01532
1.01715
1.01807
1.01898
1.0202
1.02112
1.02173
1.02203
1.02142
1.02203
1.02081
1.01959
1.01837
1.01715
1.01562
1.0141
1.01135
1.00952
1.00708
1.00464
1.00159
0.99884
0.995483
0.992126
0.98877
0.985413
0.98114
0.977783
0.973511
0.968628
0.964661
0.960388
0.956421
0.951538
0.947266
0.942078
0.938416
0.932617
0.927429
0.922852
0.917664
0.91217
0.907593
0.902405
0.897217
0.892944
0.887756
0.882568
0.87677
0.871582
0.86731
0.861816
0.857544
0.852051
0.846863
0.84259
0.836487
0.831604
0.827332
0.822449
0.817261
0.812683
0.808411
0.803528
0.798645
0.793762
0.789185
0.784912
0.78064
0.776978
0.772095
0.767517
0.763245
0.758972
0.7547
0.750732
0.747375
0.743408
0.739441
0.735779
0.731812
0.728149
0.724792
0.721436
0.718689
0.714722
0.71106
0.708008
0.704956
0.701904
0.698547
0.695801
0.693665
0.690002
0.687256
0.684509
0.681152
0.678711
0.676575
0.673828
0.671082
0.667419
0.665283
0.662842
0.660095
0.657349
0.655518
0.653687
0.650024
0.647888
0.645142
0.6427
0.639343
0.636902
0.634155
0.631104
0.628662
0.626221
0.623169
0.619507
0.61676
0.614014
0.611267
0.608826
0.605469
0.601501
0.59845
0.596008
0.592957
0.5896
0.585938
0.583191
0.579834
0.577087
0.57373
0.570068
0.567932
0.563354
0.560303
0.556946
0.554504
0.550842
0.546875
0.544128
0.540466
0.53772
0.534668
0.531006
0.527954
0.524597
0.52124
0.518494
0.515137
0.512695
0.509644
0.506592
0.503845
0.500183
0.498352
0.49469
0.492554
0.490723
0.488281
0.48584
0.484009
0.481873
0.480347
0.478821
0.476685
0.474854
0.473633
0.472107
0.469971
0.46875
0.467834
0.466003
0.465393
0.464172
0.462952
0.462341
0.461426
0.46051
0.46051
0.4599
0.45929
0.458679
0.458679
0.458069
0.458069
0.457764
0.457764
0.458069
0.458374
0.458069
0.458374
0.458679
0.458984
0.4599
0.459595
0.460205
0.461731
0.461731
0.462036
0.463562
0.463867
0.465393
0.466003
0.467834
0.46814
0.469055
0.470581
0.471802
0.471802
0.472717
0.474243
0.475464
0.476379
0.47699
0.478516
0.480042
0.481262
0.482788
0.482483
0.484314
0.484619
0.48584
0.487671
0.488586
0.489502
0.491333
0.491638
0.492554
0.493164
0.493164
0.494995
0.495605
0.496521
0.496521
0.497131
0.498047
0.498352
0.499268
0.499268
0.500488
0.500183
0.500793
0.501099
0.501709
0.502014
0.502014
0.501709
0.50293
0.501709
0.50293
0.502319
0.502319
0.502625
0.502014
0.502014
0.501404
0.501099
0.501404
0.500488
0.500183
0.499268
0.498962
0.498657
0.497742
0.496826
0.496826
0.495911
0.49469
0.493774
0.493164
0.491943
0.491333
0.490112
0.489197
0.487976
0.486145
0.485535
0.483704
0.483093
0.481262
0.481262
0.479736
0.4776
0.476685
0.474854
0.473633
0.472107
0.470886
0.469055
0.467529
0.466003
0.464478
0.462952
0.46051
0.459595
0.457764
0.456848
0.455017
0.453796
0.451355
0.449829
0.447693
0.445862
0.444031
0.442505
0.441284
0.438843
0.437317
0.435791
0.43335
0.430908
0.429688
0.427551
0.426941
0.424805
0.422974
0.421143
0.419922
0.418701
0.416565
0.415039
0.413513
0.411987
0.410461
0.408936
0.407104
0.405273
0.404053
0.401917
0.401001
0.39917
0.397949
0.395203
0.394897
0.393066
0.391541
0.390625
0.389404
0.387573
0.385742
0.383911
0.38269
0.381775
0.380249
0.379333
0.378418
0.376587
0.375366
0.37384
0.372925
0.372009
0.370483
0.369568
0.368958
0.367432
0.366821
0.365295
0.365295
0.36438
0.363464
0.362244
0.362549
0.361633
0.361328
0.359192
0.359497
0.358582
0.358582
0.357971
0.357666
0.35614
0.35614
0.356445
0.354919
0.354614
0.354309
0.353394
0.353394
0.353699
0.353394
0.353088
0.353394
0.352173
0.351868
0.352478
0.351868
0.351868
0.351868
0.350952
0.349426
0.350037
0.350952
0.349731
0.350342
0.349426
0.350342
0.349731
0.349426
0.349121
0.348816
0.349121
0.349426
0.349426
0.348816
0.349121
0.348816
0.348206
0.348816
0.348511
0.348511
0.348206
0.348206
0.3479
0.3479
0.34729
0.347595
0.346985
0.34668
0.34668
0.34668
0.346985
0.34668
0.34729
0.346985
0.34668
0.346069
0.34668
0.345764
0.345764
0.345154
0.345764
0.345459
0.344849
0.344543
0.345154
0.345459
0.343933
0.344238
0.343933
0.343628
0.343018
0.343018
0.342712
0.342407
0.342102
0.342102
0.342102
0.341187
0.340576
0.341187
0.340576
0.340576
0.339355
0.339661
0.339355
0.339355
0.339355
0.338745
0.33844
0.337524
0.338135
0.337219
0.337219
0.337524
0.337524
0.336609
0.336304
0.337219
0.335999
0.335693
0.336304
0.335388
0.335083
0.335083
0.335083
0.334778
0.335083
0.334778
0.334778
0.335388
0.334778
0.334778
0.335388
0.333862
0.334778
0.335083
0.334778
0.335083
0.335693
0.335693
0.336304
0.336304
0.335693
0.335999
0.336304
0.336914
0.336914
0.337524
0.337524
0.33783
0.33844
0.338745
0.339661
0.339661
0.339355
0.340271
0.342102
0.341797
0.342102
0.342407
0.342712
0.343018
0.343018
0.343628
0.344238
0.344849
0.344543
0.345764
0.346069
0.346985
0.348206
0.347595
0.348511
0.348206
0.349731
0.349731
0.350647
0.351868
0.352173
0.352173
0.352783
0.353699
0.354614
0.354919
0.35553
0.35675
0.35675
0.357971
0.358582
0.359802
0.358887
0.361023
0.362244
0.362549
0.36499
0.365601
0.366516
0.368347
0.369873
0.370483
0.37262
0.374451
0.376282
0.378113
0.380554
0.382996
0.385132
0.388489
0.391541
0.394592
0.398254
0.402222
0.405273
0.409546
0.413513
0.418396
0.422974
0.427551
0.433044
0.437317
0.444031
0.450134
0.455627
0.461426
0.46814
0.475464
0.482483
0.489502
0.496826
0.50415
0.512695
0.520935
0.529785
0.538025
0.546265
0.556335
0.565491
0.574951
0.584106
0.592957
0.603638
0.613098
0.623169
0.63324
0.643311
0.652771
0.664368
0.674744
0.686035
0.696106
0.706787
0.716858
0.728455
0.73761
0.749817
0.759888
0.769348
0.780945
0.79071
0.800781
0.810547
0.820312
0.830994
0.840454
0.849304
0.859375
0.86853
0.877686
0.886536
0.894775
0.90332
0.91156
0.9198
0.927124
0.934448
0.940552
0.949097
0.9552
0.960999
0.966492
0.97229
0.978394
0.982971
0.987854
0.993042
0.997009
1.00098
1.00433
1.00739
1.01135
1.01379
1.01715
1.01837
1.0202
1.02264
1.02356
1.02417
1.02661
1.02539
1.02631
1.02539
1.0257
1.0257
1.02448
1.02386
1.02295
1.02081
1.01959
1.01837
1.01562
1.01349
1.01105
1.00952
1.00616
1.00372
1.00098
0.997314
0.994263
0.990295
0.986633
0.983887
0.978699
0.975952
0.97168
0.967407
0.96283
0.958862
0.954285
0.949707
0.946045
0.941467
0.935974
0.932007
0.927734
0.923462
0.918274
0.914001
0.909424
0.903625
0.899048
0.895081
0.889893
0.884705
0.879517
0.875854
0.870667
0.865479
0.861206
0.856323
0.851746
0.846863
0.842285
0.837402
0.83374
0.829468
0.823975
0.820312
0.81543
0.811157
0.807495
0.802002
0.798035
0.793457
0.789795
0.784912
0.78125
0.777283
0.773926
0.769958
0.765991
0.76355
0.759583
0.75592
0.752869
0.749512
0.74585
0.743103
0.739746
0.736694
0.733337
0.730286
0.728149
0.724792
0.721436
0.719604
0.715942
0.71228
0.71106
0.708008
0.706177
0.704651
0.701294
0.698242
0.695801
0.693665
0.691833
0.689087
0.687561
0.684509
0.682068
0.679016
0.676575
0.673828
0.671387
0.668945
0.666504
0.663147
0.661316
0.658264
0.656128
0.653381
0.65033
0.647278
0.644836
0.64209
0.639038
0.635986
0.63324
0.629578
0.626221
0.623474
0.620422
0.61676
0.612793
0.610046
0.606689
0.603027
0.599365
0.595703
0.592041
0.589294
0.585022
0.582275
0.578308
0.574646
0.570984
0.567627
0.564575
0.560608
0.557861
0.553894
0.551147
0.548096
0.544434
0.541992
0.538635
0.535889
0.532837
0.529785
0.526428
0.524597
0.521851
0.519409
0.516052
0.513306
0.511169
0.508728
0.506592
0.503845
0.501099
0.499268
0.497131
0.494995
0.493469
0.491333
0.488892
0.488586
0.486755
0.485229
0.484619
0.482788
0.481262
0.481567
0.480652
0.480042
0.478516
0.4776
0.476074
0.476685
0.475769
0.475769
0.475464
0.475464
0.474548
0.474854
0.474243
0.475159
0.474548
0.475159
0.475464
0.475464
0.476074
0.476379
0.477295
0.477905
0.477905
0.478516
0.478821
0.480042
0.480042
0.481567
0.482178
0.482788
0.483398
0.484924
0.485535
0.48645
0.487061
0.488586
0.488892
0.489807
0.490723
0.491638
0.492554
0.493469
0.494385
0.495605
0.496521
0.496826
0.497742
0.498657
0.498962
0.499573
0.499878
0.501099
0.502014
0.502014
0.502625
0.503845
0.503845
0.504456
0.505371
0.506287
0.506287
0.506592
0.507202
0.507202
0.507812
0.507812
0.507507
0.507812
0.507507
0.508118
0.508423
0.508728
0.507202
0.507507
0.507202
0.507812
0.507812
0.507202
0.506287
0.506592
0.506592
0.506287
0.505066
0.504761
0.504761
0.50354
0.502319
0.50293
0.501099
0.500183
0.499573
0.499573
0.498657
0.497437
0.497742
0.496826
0.4953
0.494995
0.493774
0.493469
0.492249
0.491028
0.489502
0.487976
0.488586
0.486145
0.485229
0.484009
0.482483
0.480957
0.479736
0.478516
0.476685
0.475464
0.473633
0.472412
0.471191
0.469666
0.468445
0.466614
0.465088
0.463562
0.461731
0.460815
0.458374
0.456848
0.455627
0.453186
0.45105
0.450134
0.447693
0.445557
0.444641
0.441895
0.440369
0.438843
0.437317
0.435791
0.43457
0.432739
0.430603
0.428772
0.427246
0.426025
0.423889
0.423279
0.420532
0.418396
0.41687
0.415955
0.414124
0.411987
0.410767
0.409851
0.408325
0.406189
0.404968
0.403748
0.401917
0.400696
0.399475
0.397949
0.396729
0.395813
0.393982
0.392761
0.392151
0.390625
0.390015
0.388794
0.387268
0.386658
0.385132
0.383606
0.38269
0.382385
0.38147
0.381165
0.379944
0.378723
0.378418
0.377197
0.376282
0.375977
0.374756
0.37384
0.373535
0.372009
0.371704
0.370789
0.370178
0.369568
0.368652
0.368042
0.368042
0.367432
0.367432
0.366516
0.366516
0.365601
0.365906
0.36499
0.364685
0.36499
0.36499
0.364075
0.36438
0.36438
0.364075
0.363464
0.364075
0.363464
0.36377
0.36377
0.364075
0.36377
0.36377
0.363464
0.364685
0.364075
0.364075
0.364685
0.36438
0.364685
0.36438
0.36499
0.36499
0.36499
0.364685
0.365295
0.365295
0.364685
0.36499
0.365601
0.365295
0.365601
0.36499
0.365906
0.365295
0.365601
0.36499
0.365601
0.36499
0.365295
0.364685
0.364685
0.36499
0.364075
0.36438
0.36499
0.364685
0.36377
0.363464
0.36377
0.36377
0.36377
0.363159
0.363159
0.362854
0.362854
0.362854
0.362854
0.361938
0.362549
0.361633
0.361633
0.360718
0.361023
0.360413
0.360718
0.361023
0.360107
0.360413
0.359192
0.359192
0.359192
0.358887
0.358582
0.358276
0.358887
0.357971
0.358276
0.357971
0.357666
0.357056
0.357361
0.35675
0.35675
0.35614
0.35553
0.35553
0.35553
0.35553
0.355835
0.355835
0.355225
0.355835
0.354614
0.354614
0.354919
0.354614
0.355225
0.354309
0.354309
0.354919
0.353394
0.354004
0.353394
0.354004
0.354614
0.354004
0.354004
0.354004
0.354004
0.354309
0.353699
0.354004
0.353699
0.354004
0.354004
0.355225
0.355225
0.35553
0.355225
0.355835
0.35553
0.356445
0.356445
0.35675
0.357361
0.35675
0.357971
0.357971
0.358582
0.359497
0.360107
0.360413
0.361938
0.361633
0.362244
0.362549
0.36377
0.36377
0.365295
0.365906
0.365906
0.367126
0.368347
0.368347
0.369568
0.370178
0.371399
0.371704
0.372925
0.373535
0.374451
0.374756
0.376282
0.377808
0.377808
0.378723
0.379944
0.380859
0.381775
0.38269
0.383301
0.384521
0.385132
0.385742
0.387268
0.388489
0.389709
0.391235
0.392151
0.393372
0.395508
0.397339
0.398865
0.400391
0.402527
0.404968
0.407104
0.409546
0.412292
0.415039
0.417786
0.420837
0.423889
0.426636
0.430603
0.43396
0.438232
0.4422
0.447083
0.451965
0.456543
0.461731
0.467224
0.473022
0.478516
0.485229
0.491333
0.498047
0.504456
0.511169
0.519104
0.526123
0.534058
0.541077
0.550232
0.558777
0.567017
0.576172
0.585022
0.594177
0.602417
0.612183
0.622253
0.631409
0.641479
0.65155
0.661011
0.671082
0.681458
0.691833
0.701904
0.711365
0.721741
0.731201
0.742188
0.752258
0.762329
0.77179
0.781555
0.792236
0.802002
0.811768
0.821533
0.830994
0.840149
0.849915
0.858459
0.867004
0.87616
0.88501
0.892639
0.900879
0.908813
0.916138
0.923767
0.930176
0.937805
0.943909
0.950012
0.956116
0.962524
0.967407
0.972595
0.978394
0.982971
0.987549
0.992126
0.996094
0.999451
1.0025
1.00616
1.00861
1.01074
1.01349
1.01501
1.01746
1.01837
1.01959
1.0202
1.02112
1.02173
1.02173
1.02264
1.02051
1.02051
1.01898
1.01868
1.01746
1.01562
1.0144
1.01196
1.01013
1.00769
1.00525
1.0025
0.999146
0.996094
0.993042
0.98999
0.987244
0.983887
0.979614
0.976562
0.972595
0.968323
0.96405
0.960388
0.955811
0.951233
0.946045
0.941772
0.93811
0.933533
0.92926
0.923767
0.919495
0.914917
0.909424
0.904846
0.900574
0.895081
0.889893
0.88562
0.881348
0.875244
0.870667
0.866699
0.861206
0.857239
0.851746
0.847473
0.84198
0.837708
0.832825
0.828857
0.823975
0.820007
0.815125
0.810547
0.805664
0.802307
0.797424
0.793152
0.78949
0.785828
0.781555
0.778503
0.773315
0.770569
0.765991
0.763245
0.759583
0.756226
0.752869
0.749512
0.746155
0.743408
0.740967
0.73761
0.735474
0.731812
0.730591
0.726929
0.723877
0.721741
0.719299
0.716858
0.714111
0.711975
0.709534
0.707092
0.703735
0.702515
0.699158
0.698242
0.694275
0.692749
0.690308
0.688782
0.685425
0.683289
0.681458
0.678711
0.676575
0.674744
0.672607
0.670471
0.66803
0.665283
0.662842
0.65979
0.657959
0.654907
0.652466
0.649719
0.647278
0.643311
0.641174
0.637207
0.63446
0.632324
0.628662
0.625916
0.622864
0.619507
0.61615
0.613098
0.609741
0.606689
0.603333
0.599976
0.596619
0.592346
0.588989
0.585938
0.582275
0.578918
0.574951
0.571899
0.568542
0.565186
0.561523
0.557861
0.55481
0.551453
0.547791
0.544739
0.541992
0.540161
0.535889
0.533142
0.530701
0.527344
0.524902
0.522156
0.519409
0.516052
0.513916
0.511169
0.509033
0.507812
0.505066
0.50293
0.500793
0.498962
0.496521
0.495605
0.493469
0.491638
0.490112
0.488892
0.48645
0.485535
0.484924
0.483093
0.482178
0.480957
0.480347
0.479126
0.478821
0.47821
0.47699
0.476685
0.476379
0.476379
0.475464
0.475464
0.475464
0.474854
0.475464
0.474548
0.475159
0.475464
0.476379
0.475159
0.476074
0.475769
0.476685
0.477295
0.4776
0.478821
0.479126
0.480347
0.480957
0.481567
0.481873
0.482788
0.483093
0.484314
0.484009
0.48584
0.486145
0.48645
0.487976
0.488892
0.489502
0.491028
0.491028
0.491943
0.493164
0.493469
0.493774
0.4953
0.495605
0.496826
0.496826
0.497742
0.498352
0.499268
0.499573
0.500183
0.500488
0.500488
0.501099
0.501709
0.501709
0.501404
0.502319
0.502625
0.502014
0.50293
0.502319
0.502014
0.502319
0.502319
0.502014
0.501709
0.502014
0.501709
0.501709
0.501099
0.500183
0.499878
0.500183
0.498962
0.498962
0.498352
0.497437
0.496826
0.495911
0.495605
0.495605
0.494385
0.493469
0.492859
0.492249
0.491028
0.490417
0.489502
0.487976
0.487671
0.485535
0.484314
0.483398
0.482788
0.480652
0.479736
0.479126
0.47699
0.476074
0.475464
0.474548
0.472412
0.471497
0.469971
0.468445
0.467529
0.466309
0.465088
0.463562
0.461731
0.460205
0.458069
0.456543
0.455322
0.453796
0.452271
0.449829
0.447998
0.446167
0.444641
0.44281
0.441589
0.439453
0.438538
0.436401
0.434875
0.43335
0.431519
0.429993
0.428162
0.42572
0.4245
0.422974
0.421143
0.419312
0.41748
0.41626
0.414429
0.413818
0.411682
0.410767
0.409241
0.407715
0.406494
0.404663
0.403442
0.402527
0.400696
0.39978
0.399475
0.397034
0.396118
0.395508
0.394287
0.392456
0.39093
0.390015
0.389404
0.388489
0.387268
0.386047
0.385742
0.384521
0.38269
0.38269
0.38147
0.380859
0.380554
0.379028
0.378113
0.377197
0.376587
0.376587
0.375061
0.374756
0.373535
0.37262
0.371704
0.371094
0.370483
0.370178
0.369263
0.368958
0.368652
0.367432
0.367432
0.367432
0.367126
0.366516
0.365906
0.365295
0.365295
0.36499
0.36438
0.36438
0.36377
0.36377
0.36377
0.363159
0.362549
0.362549
0.362244
0.362549
0.362549
0.362244
0.361938
0.362549
0.361938
0.361938
0.361328
0.361633
0.361633
0.361938
0.361328
0.362244
0.361938
0.361938
0.361328
0.361938
0.362244
0.362244
0.362244
0.362549
0.362549
0.361633
0.361938
0.362244
0.361633
0.362244
0.361633
0.360718
0.361023
0.361633
0.361023
0.360107
0.360107
0.360107
0.359192
0.359192
0.358887
0.359497
0.359192
0.359497
0.359192
0.358887
0.358276
0.357971
0.357666
0.357361
0.357971
0.357056
0.357056
0.356445
0.355835
0.355225
0.35553
0.354614
0.354614
0.354614
0.354004
0.353699
0.353088
0.353088
0.353088
0.352783
0.353394
0.352478
0.352478
0.351562
0.350952
0.350952
0.350037
0.350342
0.349121
0.348816
0.349121
0.349426
0.348511
0.3479
0.3479
0.346985
0.346069
0.346985
0.346985
0.346375
0.346069
0.345764
0.345764
0.344543
0.344238
0.344238
0.343628
0.343018
0.343323
0.343323
0.342712
0.343018
0.341797
0.341797
0.342407
0.341797
0.342102
0.342712
0.342407
0.341797
0.341492
0.342407
0.343018
0.342407
0.342102
0.343018
0.343018
0.343018
0.343323
0.342712
0.343628
0.343628
0.343933
0.344238
0.344543
0.344849
0.345154
0.344849
0.346985
0.3479
0.34729
0.347595
0.348511
0.349121
0.350342
0.349731
0.350647
0.351257
0.351868
0.352173
0.351868
0.353088
0.354309
0.355225
0.355225
0.356445
0.357361
0.357361
0.358276
0.358887
0.359802
0.360413
0.361023
0.362244
0.362549
0.363159
0.363464
0.365601
0.36499
0.366516
0.366516
0.367126
0.367737
0.368347
0.368958
0.370178
0.370178
0.371094
0.371704
0.372314
0.373535
0.37384
0.374756
0.375366
0.375366
0.376587
0.378113
0.378723
0.380249
0.38147
0.381775
0.383606
0.384521
0.386047
0.386963
0.389099
0.39093
0.392761
0.396118
0.398254
0.400085
0.403137
0.406189
0.40863
0.411682
0.415649
0.418396
0.422058
0.426331
0.431213
0.435486
0.439453
0.444641
0.450134
0.455322
0.460815
0.466614
0.473022
0.479736
0.48584
0.492554
0.500183
0.507202
0.514832
0.522156
0.53009
0.538025
0.546875
0.554504
0.563354
0.57251
0.58075
0.589905
0.59906
0.607605
0.617981
0.627747
0.636597
0.646057
0.656433
0.666504
0.675659
0.68573
0.695496
0.704651
0.714722
0.724182
0.734253
0.744324
0.754089
0.76355
0.77301
0.78186
0.791626
0.800781
0.810242
0.818787
0.827637
0.836182
0.845032
0.853882
0.861511
0.869141
0.87738
0.884705
0.891724
0.899963
0.906372
0.913086
0.920105
0.925598
0.931702
0.9375
0.943298
0.948792
0.953369
0.958252
0.96344
0.967407
0.970764
0.974731
0.978088
0.98053
0.983582
0.986023
0.987549
0.98938
0.991211
0.993347
0.993652
0.994263
0.994263
0.994873
0.994873
0.993958
0.994263
0.993347
0.992126
0.991821
0.989685
0.988464
0.986328
0.984497
0.982056
0.979614
0.977783
0.974426
0.97168
0.968933
0.965881
0.963135
0.959778
0.956421
0.952759
0.949707
0.94574
0.942383
0.938721
0.934143
0.930176
0.925903
0.921936
0.918274
0.912781
0.909119
0.904541
0.900574
0.896301
0.891724
0.886536
0.883179
0.87738
0.873108
0.868835
0.864258
0.860291
0.855713
0.851135
0.846558
0.84259
0.838013
0.83374
0.829163
0.825195
0.820007
0.815735
0.812683
0.808105
0.803833
0.799561
0.794678
0.791321
0.787048
0.783386
0.780029
0.776062
0.771484
0.768433
0.765076
0.761414
0.757446
0.754089
0.750122
0.74707
0.743713
0.740051
0.737305
0.734253
0.72998
0.728149
0.725098
0.722046
0.718994
0.716248
0.714722
0.71106
0.708923
0.705566
0.702515
0.700684
0.698547
0.696716
0.694275
0.690613
0.689087
0.686951
0.684509
0.681763
0.679626
0.678101
0.675049
0.672913
0.671082
0.668335
0.666504
0.663757
0.661316
0.658875
0.656738
0.653992
0.65155
0.649109
0.646667
0.643311
0.640869
0.638123
0.635681
0.632324
0.629272
0.626221
0.624084
0.620728
0.617065
0.614014
0.611267
0.6073
0.604553
0.602417
0.597534
0.594788
0.591736
0.588379
0.584412
0.580444
0.577393
0.57373
0.569763
0.567322
0.563354
0.560303
0.556641
0.552673
0.549316
0.545959
0.542603
0.539551
0.535583
0.532837
0.530396
0.526428
0.522461
0.52063
0.517578
0.514526
0.511169
0.508423
0.506287
0.50293
0.500793
0.498352
0.494995
0.493164
0.491028
0.488892
0.48584
0.484619
0.482483
0.480652
0.478516
0.47699
0.475464
0.473633
0.472107
0.470886
0.46936
0.46814
0.467224
0.466309
0.465393
0.464783
0.463867
0.464172
0.462952
0.462341
0.462036
0.461731
0.461426
0.460815
0.461121
0.461731
0.461121
0.462036
0.462036
0.462036
0.461731
0.462952
0.462036
0.463562
0.463867
0.464783
0.464783
0.465393
0.465698
0.466614
0.466919
0.467224
0.467834
0.468445
0.46936
0.469666
0.470581
0.471191
0.471497
0.472717
0.473633
0.473938
0.474243
0.474854
0.476074
0.47699
0.477295
0.477295
0.477905
0.477905
0.478821
0.479431
0.480042
0.480652
0.480957
0.481262
0.481567
0.481262
0.482178
0.482788
0.482483
0.481873
0.483704
0.484009
0.483398
0.483704
0.483704
0.483704
0.484009
0.483704
0.484009
0.484619
0.484314
0.484009
0.483704
0.483704
0.483704
0.483704
0.483398
0.483398
0.482483
0.482178
0.480652
0.480042
0.480042
0.478516
0.47821
0.4776
0.47699
0.476074
0.474548
0.474243
0.473938
0.472412
0.471191
0.470581
0.469666
0.468445
0.468445
0.466614
0.465088
0.464172
0.462036
0.461426
0.460815
0.4599
0.458069
0.456848
0.455322
0.453186
0.453186
0.45105
0.450439
0.448608
0.447388
0.446167
0.445251
0.443115
0.441589
0.441284
0.439148
0.437622
0.436096
0.435181
0.43335
0.431213
0.429688
0.428162
0.42572
0.424805
0.423279
0.421753
0.419312
0.418396
0.41687
0.414734
0.413208
0.411987
0.410461
0.40863
0.405884
0.404968
0.403442
0.401306
0.399475
0.397949
0.396729
0.394592
0.393677
0.391235
0.390015
0.388184
0.386963
0.386047
0.384216
0.38269
0.381165
0.379639
0.378418
0.376892
0.375061
0.373535
0.37262
0.370789
0.369568
0.368042
0.366516
0.365295
0.364075
0.362854
0.361938
0.361023
0.359802
0.358582
0.35675
0.35614
0.355225
0.354004
0.353699
0.351868
0.350952
0.349731
0.349121
0.348206
0.3479
0.34668
0.34668
0.345459
0.344238
0.344238
0.343933
0.343018
0.342102
0.342102
0.340881
0.340576
0.340881
0.340271
0.339355
0.339355
0.338135
0.33844
0.33783
0.33783
0.337219
0.336914
0.337219
0.336609
0.336304
0.336609
0.335388
0.336914
0.336304
0.335999
0.335693
0.335693
0.334778
0.335083
0.335083
0.334778
0.334778
0.335083
0.335083
0.334473
0.334778
0.334473
0.334473
0.335083
0.335388
0.335083
0.335388
0.335083
0.335693
0.335693
0.335693
0.335999
0.336609
0.336304
0.336609
0.336609
0.337524
0.337219
0.336609
0.337219
0.336609
0.337524
0.337524
0.337219
0.337219
0.337219
0.337219
0.338135
0.337524
0.33844
0.338745
0.33783
0.338745
0.33905
0.33905
0.339661
0.339355
0.340271
0.339966
0.340576
0.340271
0.339661
0.339661
0.340576
0.340271
0.340271
0.340881
0.340881
0.341492
0.342102
0.342102
0.341187
0.342407
0.341492
0.341797
0.341797
0.339966
0.341492
0.340881
0.340271
0.339661
0.339966
0.339355
0.338745
0.338745
0.338745
0.33844
0.33844
0.33844
0.338745
0.33844
0.338135
0.33783
0.33783
0.337219
0.336914
0.337219
0.337219
0.336304
0.336304
0.336304
0.336609
0.335693
0.335388
0.335388
0.336304
0.335083
0.335083
0.335388
0.334778
0.334778
0.334473
0.334167
0.334473
0.334778
0.334167
0.333862
0.333862
0.334473
0.333557
0.333557
0.333252
0.333252
0.333557
0.332642
0.334778
0.334473
0.333252
0.334167
0.333557
0.333557
0.333557
0.334167
0.334473
0.334167
0.335083
0.334167
0.334473
0.334473
0.334473
0.334778
0.334167
0.334778
0.334778
0.334778
0.334778
0.335999
0.335388
0.336304
0.336914
0.336914
0.337219
0.33783
0.338135
0.33905
0.339355
0.339355
0.339355
0.340576
0.340881
0.342102
0.342102
0.343018
0.343628
0.344238
0.345154
0.345764
0.34668
0.3479
0.348206
0.348511
0.349426
0.349731
0.350647
0.351257
0.352783
0.352783
0.353699
0.354309
0.354614
0.355225
0.355835
0.35553
0.35675
0.357666
0.358276
0.359802
0.360107
0.360413
0.361633
0.362549
0.363464
0.36438
0.366211
0.367432
0.368042
0.370178
0.371094
0.372314
0.373535
0.375061
0.376587
0.379944
0.38147
0.382996
0.385132
0.387573
0.39032
0.393066
0.396118
0.398865
0.402222
0.405579
0.409546
0.413208
0.41687
0.421448
0.42572
0.430298
0.43396
0.440369
0.445251
0.450439
0.456543
0.462646
0.468445
0.475159
0.482483
0.488586
0.496216
0.50415
0.511169
0.519714
0.527039
0.536194
0.543823
0.552673
0.561523
0.570984
0.579529
0.588379
0.598755
0.6073
0.617065
0.626526
0.637207
0.646057
0.655823
0.666199
0.67627
0.686951
0.697327
0.706177
0.716858
0.726318
0.736694
0.74707
0.757141
0.766907
0.776978
0.786743
0.795593
0.804443
0.813599
0.823669
0.832825
0.84198
0.85022
0.858765
0.867004
0.874939
0.882874
0.890503
0.898438
0.904846
0.911255
0.918579
0.924683
0.930786
0.935669
0.941467
0.94635
0.951538
0.956421
0.960388
0.964661
0.968018
0.972595
0.975342
0.978088
0.98053
0.983276
0.985413
0.986938
0.98877
0.989685
0.991516
0.991211
0.992126
0.991821
0.992432
0.992432
0.991211
0.989685
0.989075
0.988464
0.987854
0.985718
0.983582
0.982666
0.979919
0.978394
0.975342
0.9729
0.970459
0.967407
0.964661
0.961609
0.957947
0.9552
0.950623
0.94696
0.943298
0.939331
0.935669
0.931702
0.927429
0.922852
0.919495
0.914307
0.910339
0.905457
0.902405
0.897827
0.892334
0.888367
0.883484
0.878906
0.874939
0.869751
0.864563
0.85968
0.856018
0.851135
0.846558
0.84198
0.837402
0.83313
0.828552
0.823975
0.820007
0.815735
0.812073
0.806885
0.803223
0.798035
0.794678
0.7901
0.786133
0.78186
0.778809
0.774231
0.770874
0.767212
0.76355
0.760498
0.756226
0.752869
0.750427
0.74646
0.744019
0.740356
0.737305
0.734253
0.730591
0.728149
0.725403
0.722046
0.720215
0.716858
0.714722
0.711975
0.709839
0.708008
0.704651
0.702515
0.700378
0.697937
0.696106
0.693359
0.691833
0.689392
0.687866
0.685425
0.682983
0.680847
0.678711
0.677185
0.674744
0.671997
0.670166
0.66803
0.665283
0.662842
0.6604
0.657959
0.655518
0.653381
0.649719
0.648193
0.645752
0.643005
0.640259
0.637512
0.635376
0.632019
0.629272
0.626526
0.623169
0.620728
0.617676
0.613708
0.611267
0.60791
0.604858
0.601807
0.598145
0.595703
0.59082
0.589294
0.584412
0.58197
0.578003
0.574951
0.571899
0.568237
0.564575
0.560913
0.557556
0.554199
0.551147
0.547791
0.544128
0.541382
0.53833
0.535278
0.532837
0.529175
0.525818
0.523071
0.520935
0.517578
0.515442
0.512695
0.509644
0.508118
0.504761
0.502319
0.500183
0.497742
0.496521
0.4953
0.492249
0.490723
0.489197
0.487366
0.48645
0.485229
0.484009
0.482788
0.481567
0.480042
0.479736
0.479431
0.477905
0.477295
0.476379
0.476379
0.476074
0.475464
0.474548
0.475159
0.474243
0.474548
0.473938
0.473938
0.474243
0.474548
0.474548
0.474854
0.475159
0.475464
0.476074
0.4776
0.476379
0.477295
0.4776
0.478821
0.479431
0.479431
0.481262
0.481262
0.482178
0.483093
0.483398
0.485229
0.484924
0.48645
0.48645
0.487976
0.489197
0.490112
0.491028
0.491943
0.492859
0.493774
0.49469
0.495911
0.496521
0.497742
0.498352
0.499268
0.500488
0.501404
0.501709
0.502625
0.502625
0.503845
0.50415
0.505066
0.505371
0.505981
0.506592
0.506592
0.506897
0.507202
0.507202
0.507507
0.507812
0.507812
0.508118
0.506897
0.507202
0.507812
0.507507
0.506592
0.506897
0.506287
0.506287
0.505981
0.506592
0.505066
0.504456
0.50415
0.503845
0.50415
0.502625
0.501404
0.500793
0.500183
0.498962
0.498962
0.497437
0.496521
0.495605
0.494385
0.493774
0.492859
0.491638
0.490112
0.489197
0.487671
0.486145
0.48584
0.484314
0.483398
0.481567
0.480347
0.478821
0.4776
0.476074
0.474548
0.472412
0.471802
0.469666
0.468445
0.466919
0.465393
0.463867
0.463257
0.461121
0.459595
0.457764
0.456848
0.455017
0.454102
0.452271
0.449829
0.447998
0.446472
0.445251
0.443115
0.441589
0.440063
0.438538
0.436096
0.434875
0.43335
0.431824
0.430908
0.429077
0.427856
0.426025
0.424194
0.422668
0.421448
0.419617
0.417786
0.41687
0.415955
0.413818
0.412292
0.411682
0.409241
0.40802
0.40741
0.405579
0.404053
0.403137
0.402222
0.400391
0.399475
0.398865
0.397339
0.395203
0.394592
0.393066
0.392151
0.39093
0.389099
0.387878
0.386658
0.386353
0.385132
0.383911
0.382385
0.381165
0.380249
0.379333
0.379028
0.377502
0.376587
0.375977
0.374756
0.374146
0.373535
0.37262
0.371704
0.369568
0.369568
0.369263
0.368347
0.368042
0.366516
0.365906
0.365601
0.36499
0.36499
0.36438
0.363464
0.363159
0.36377
0.362854
0.362244
0.362549
0.361938
0.361633
0.361328
0.361328
0.360107
0.360107
0.360413
0.359802
0.359802
0.359497
0.360107
0.359802
0.359192
0.358582
0.358887
0.358276
0.359192
0.358887
0.358887
0.358582
0.358887
0.358276
0.358582
0.358887
0.358582
0.358582
0.358276
0.358887
0.358887
0.358582
0.358582
0.358887
0.358582
0.358887
0.358887
0.359192
0.359192
0.359192
0.359192
0.359802
0.359497
0.358887
0.359497
0.359497
0.359802
0.359802
0.359802
0.359192
0.359192
0.359802
0.360107
0.360107
0.360413
0.360413
0.361328
0.360718
0.361023
0.360413
0.361633
0.360718
0.361633
0.361023
0.361023
0.361633
0.361633
0.361633
0.361633
0.362244
0.362549
0.362854
0.362244
0.362244
0.361938
0.361938
0.361938
0.361938
0.361328
0.361328
0.360718
0.361023
0.361328
0.360413
0.360413
0.360107
0.359802
0.359192
0.359192
0.359497
0.359192
0.358887
0.358887
0.359192
0.358582
0.357666
0.357361
0.357666
0.35675
0.357361
0.35614
0.35614
0.35675
0.355225
0.355225
0.355225
0.354919
0.354919
0.354614
0.353394
0.353699
0.353699
0.353394
0.352478
0.352478
0.352478
0.351868
0.351868
0.351562
0.351257
0.351257
0.351868
0.349731
0.350342
0.350342
0.349731
0.348816
0.348816
0.349426
0.349121
0.348206
0.348511
0.348206
0.347595
0.3479
0.347595
0.3479
0.3479
0.34729
0.346985
0.3479
0.3479
0.3479
0.34729
0.346985
0.347595
0.347595
0.348511
0.347595
0.348511
0.348511
0.348511
0.349731
0.349731
0.349731
0.349426
0.349731
0.350647
0.350952
0.350952
0.351257
0.351562
0.351257
0.352173
0.352783
0.353394
0.353088
0.353088
0.354004
0.354004
0.354004
0.354919
0.354919
0.35553
0.355835
0.35675
0.35675
0.357056
0.357666
0.357361
0.358276
0.359192
0.358887
0.359802
0.360107
0.359802
0.360413
0.361633
0.361328
0.362244
0.362244
0.362854
0.36377
0.36377
0.36499
0.364685
0.366211
0.367126
0.367737
0.368958
0.369568
0.371399
0.371704
0.37323
0.374756
0.376587
0.377808
0.379639
0.38208
0.383911
0.387268
0.388794
0.391541
0.394287
0.397034
0.401001
0.404663
0.40802
0.412598
0.41626
0.421143
0.42511
0.430603
0.435181
0.440979
0.445862
0.45166
0.458374
0.464478
0.470886
0.47699
0.484314
0.491638
0.499268
0.505981
0.513916
0.522156
0.530701
0.539246
0.548096
0.556335
0.566101
0.574951
0.584106
0.593567
0.603943
0.613403
0.623169
0.63324
0.643005
0.653381
0.663452
0.673523
0.683594
0.694885
0.704651
0.715332
0.725098
0.734863
0.744934
0.7547
0.764465
0.774841
0.783997
0.794067
0.803833
0.812988
0.822449
0.831909
0.839844
0.849915
0.857544
0.866394
0.875549
0.883179
0.891113
0.897827
0.905457
0.912476
0.9198
0.926208
0.932312
0.939026
0.943298
0.950012
0.9552
0.959778
0.96405
0.969238
0.9729
0.976257
0.979919
0.983276
0.985413
0.988464
0.991516
0.992737
0.994873
0.995178
0.99762
0.998535
0.999146
0.99884
0.999756
0.999451
0.998535
0.998535
0.996704
0.996094
0.994568
0.993652
0.990906
0.989685
0.986938
0.984497
0.982056
0.979004
0.975952
0.973206
0.969543
0.966492
0.96344
0.959167
0.955811
0.952148
0.947571
0.943909
0.939331
0.935669
0.932007
0.926208
0.921936
0.917969
0.913391
0.908813
0.903931
0.899048
0.89447
0.890198
0.885315
0.880737
0.876465
0.872192
0.866699
0.862427
0.857239
0.852356
0.848389
0.842896
0.838928
0.834045
0.829773
0.825195
0.821228
0.81604
0.811157
0.808105
0.803833
0.799255
0.794983
0.79071
0.786438
0.782776
0.779114
0.775146
0.771179
0.767517
0.763855
0.759583
0.756226
0.752869
0.749817
0.74585
0.742493
0.739136
0.736389
0.733643
0.730286
0.727234
0.723877
0.72113
0.718384
0.715942
0.71228
0.710144
0.706787
0.704346
0.701294
0.699158
0.696411
0.69458
0.691528
0.689087
0.686035
0.684204
0.681458
0.679016
0.676575
0.674438
0.671997
0.669861
0.667114
0.665283
0.662231
0.65979
0.657959
0.655212
0.652466
0.649414
0.647278
0.644531
0.64209
0.638733
0.635681
0.63324
0.630493
0.627441
0.625
0.621643
0.618286
0.61554
0.612183
0.608826
0.604248
0.602722
0.59845
0.595093
0.592346
0.588684
0.585632
0.582581
0.577698
0.574951
0.572205
0.568542
0.564575
0.562134
0.558472
0.553894
0.551758
0.548401
0.545349
0.541992
0.539246
0.536194
0.532532
0.531006
0.527954
0.524292
0.521851
0.519104
0.516968
0.514526
0.51178
0.509949
0.508118
0.505676
0.503845
0.501709
0.500488
0.498047
0.495605
0.4953
0.493164
0.491943
0.490417
0.488892
0.487671
0.487061
0.486145
0.484619
0.484314
0.484009
0.483398
0.482483
0.482178
0.481873
0.481873
0.480957
0.481262
0.481567
0.482178
0.481873
0.481262
0.482178
0.482178
0.482483
0.483398
0.484009
0.484314
0.484314
0.485229
0.48584
0.486755
0.488281
0.488281
0.489502
0.490723
0.491943
0.492249
0.493164
0.494385
0.495605
0.496826
0.497437
0.498962
0.500183
0.500793
0.503235
0.503235
0.504456
0.505371
0.507202
0.508423
0.509338
0.510864
0.511169
0.512695
0.513611
0.514832
0.515747
0.516968
0.517883
0.519104
0.519409
0.52063
0.52124
0.521851
0.523071
0.523682
0.524292
0.524902
0.526123
0.525818
0.526428
0.527039
0.527954
0.527649
0.528259
0.528259
0.529175
0.529175
0.529175
0.529175
0.528564
0.52887
0.528564
0.529175
0.527954
0.527954
0.527344
0.527344
0.525818
0.525513
0.525818
0.524902
0.523987
0.523987
0.523376
0.521851
0.520935
0.519409
0.519714
0.518494
0.516663
0.515137
0.514832
0.512695
0.512085
0.510864
0.509338
0.508118
0.506592
0.504761
0.503845
0.501709
0.500488
0.498962
0.497742
0.4953
0.49469
0.492554
0.491333
0.488892
0.487061
0.485535
0.483093
0.482788
0.480042
0.478821
0.475769
0.474548
0.472412
0.470886
0.46875
0.466919
0.465698
0.463867
0.461121
0.4599
0.458374
0.455933
0.453186
0.45166
0.450134
0.447998
0.446777
0.444336
0.441895
0.440369
0.438232
0.436401
0.43457
0.43335
0.431213
0.429077
0.427246
0.426025
0.423279
0.422363
0.420532
0.418396
0.418091
0.415344
0.413818
0.411987
0.410461
0.407715
0.406799
0.404663
0.403442
0.402222
0.401001
0.39917
0.397644
0.396423
0.395203
0.393677
0.392456
0.390015
0.388489
0.388184
0.386353
0.384827
0.383606
0.382385
0.381165
0.379944
0.379333
0.377197
0.375977
0.375061
0.374146
0.372925
0.372009
0.370483
0.370178
0.369263
0.367737
0.367432
0.366516
0.365295
0.364075
0.364075
0.362854
0.361938
0.361633
0.361023
0.359802
0.359497
0.357971
0.358276
0.357971
0.357056
0.35675
0.355835
0.355835
0.35553
0.354614
0.354004
0.353699
0.353699
0.353088
0.352478
0.352478
0.351562
0.352478
0.351562
0.351562
0.350647
0.350952
0.350952
0.350647
0.350342
0.350647
0.350342
0.350037
0.349731
0.349731
0.350952
0.350342
0.350037
0.349426
0.349731
0.349121
0.349121
0.349426
0.349121
0.348816
0.349731
0.349426
0.348816
0.349426
0.349426
0.349121
0.349121
0.349121
0.349426
0.348816
0.349121
0.348511
0.349121
0.3479
0.348206
0.348206
0.348206
0.347595
0.347595
0.348206
0.34729
0.346375
0.34729
0.347595
0.346375
0.346985
0.345764
0.34668
0.346985
0.345764
0.346375
0.346069
0.346069
0.346069
0.345154
0.345764
0.344849
0.344849
0.344238
0.343628
0.343628
0.343933
0.343628
0.343018
0.342407
0.342407
0.342102
0.342712
0.342102
0.340576
0.340881
0.340881
0.339661
0.338745
0.33905
0.338745
0.33783
0.33783
0.337219
0.336609
0.336304
0.335388
0.335083
0.334778
0.334167
0.333557
0.332947
0.332947
0.332336
0.330811
0.331726
0.331116
0.3302
0.329895
0.329895
0.329285
0.328979
0.328674
0.327759
0.327759
0.327148
0.326233
0.326233
0.325623
0.325623
0.325317
0.325317
0.325012
0.325012
0.324707
0.324707
0.324402
0.324402
0.324097
0.324097
0.323792
0.323181
0.323792
0.323486
0.323181
0.322876
0.322876
0.322876
0.322266
0.322571
0.321655
0.321655
0.32196
0.322571
0.321045
0.32196
0.32196
0.32135
0.321045
0.32135
0.321045
0.32135
0.32074
0.32135
0.321045
0.320129
0.32074
0.321045
0.321045
0.32135
0.320435
0.32135
0.321655
0.321045
0.321045
0.321045
0.32135
0.322266
0.32196
0.322266
0.321655
0.32196
0.322571
0.323486
0.323486
0.324097
0.324097
0.324402
0.325317
0.325623
0.326233
0.327759
0.328064
0.329285
0.331116
0.332642
0.334167
0.335999
0.337219
0.338745
0.340881
0.343323
0.345154
0.348206
0.351562
0.354919
0.358582
0.360413
0.36499
0.369568
0.37384
0.377808
0.38269
0.388184
0.393372
0.39856
0.404358
0.410461
0.417175
0.423279
0.430298
0.436707
0.443726
0.451355
0.458374
0.466309
0.474854
0.482483
0.490723
0.498962
0.508423
0.516663
0.526123
0.535278
0.544128
0.553284
0.563049
0.572815
0.582886
0.592041
0.602417
0.611572
0.621338
0.632019
0.641479
0.651245
0.661621
0.671692
0.682068
0.690918
0.700684
0.710754
0.720215
0.730591
0.738831
0.749207
0.757751
0.766907
0.775452
0.784607
0.793152
0.801086
0.809326
0.81665
0.824585
0.83252
0.839233
0.846863
0.854187
0.860596
0.867615
0.873108
0.879517
0.88562
0.890503
0.895691
0.901489
0.905762
0.909424
0.913086
0.916748
0.921021
0.923767
0.927124
0.92865
0.932007
0.934143
0.935974
0.937805
0.939026
0.939636
0.940552
0.941162
0.941772
0.940857
0.940857
0.940247
0.939941
0.939026
0.9375
0.93689
0.934448
0.933533
0.932007
0.929565
0.927124
0.924377
0.921326
0.9198
0.916138
0.912476
0.910034
0.907288
0.903015
0.900269
0.896606
0.892029
0.888672
0.884705
0.880432
0.87616
0.872192
0.86792
0.863647
0.860291
0.855408
0.85022
0.846558
0.842285
0.836792
0.833435
0.828247
0.823364
0.818787
0.814514
0.809631
0.805054
0.800171
0.795898
0.791626
0.786438
0.781555
0.777588
0.77301
0.768738
0.76416
0.760193
0.755005
0.750427
0.74707
0.742798
0.739136
0.734558
0.730896
0.726929
0.723267
0.719299
0.715942
0.712585
0.708618
0.705261
0.701904
0.698547
0.695496
0.691833
0.689087
0.68634
0.683594
0.680237
0.678406
0.675659
0.672607
0.670166
0.667725
0.665588
0.663147
0.6604
0.657959
0.655823
0.653381
0.65094
0.648804
0.646667
0.644531
0.642395
0.640869
0.637817
0.636292
0.63385
0.632019
0.630188
0.627441
0.62561
0.624084
0.621338
0.618896
0.617065
0.615234
0.612183
0.610046
0.60791
0.605164
0.602722
0.599365
0.597229
0.594482
0.592041
0.589294
0.586243
0.583191
0.580444
0.578003
0.574646
0.571899
0.568848
0.565186
0.561523
0.559387
0.555115
0.552673
0.549316
0.545654
0.543213
0.539246
0.536499
0.533142
0.530396
0.527344
0.523682
0.52063
0.516968
0.514221
0.511169
0.508728
0.505066
0.502319
0.499573
0.496826
0.494385
0.492249
0.489197
0.487061
0.484314
0.482483
0.480042
0.4776
0.475769
0.474243
0.472412
0.470581
0.46875
0.466614
0.465698
0.463867
0.462036
0.461426
0.459595
0.458374
0.457458
0.456848
0.456238
0.455627
0.454712
0.453491
0.452881
0.452576
0.451965
0.452271
0.45166
0.45105
0.451355
0.45166
0.451965
0.45166
0.452881
0.453186
0.453186
0.453491
0.454102
0.454712
0.455933
0.456238
0.457153
0.458374
0.459595
0.46051
0.461731
0.462952
0.463562
0.465698
0.467529
0.46814
0.470581
0.471802
0.473022
0.474854
0.476685
0.47821
0.480042
0.481567
0.482483
0.484619
0.48584
0.487671
0.489197
0.490723
0.492859
0.493469
0.495911
0.496521
0.498657
0.500183
0.501404
0.502014
0.50354
0.504456
0.505981
0.506897
0.507812
0.508728
0.509338
0.510559
0.511475
0.51239
0.513
0.513611
0.514221
0.514832
0.515137
0.516052
0.516663
0.517578
0.517578
0.517578
0.517273
0.518799
0.517273
0.517883
0.518188
0.517578
0.517883
0.517578
0.516663
0.517273
0.516357
0.515137
0.515137
0.514832
0.514526
0.513611
0.513306
0.512695
0.51178
0.511169
0.510254
0.509338
0.508423
0.507202
0.507812
0.505981
0.50415
0.503845
0.502014
0.500793
0.498657
0.498657
0.496826
0.495605
0.4953
0.493164
0.491638
0.490417
0.488892
0.487671
0.486755
0.484924
0.483704
0.481873
0.480042
0.479126
0.476685
0.475159
0.474243
0.472107
0.470581
0.46875
0.467834
0.465698
0.463867
0.462646
0.46051
0.458984
0.456848
0.455627
0.453796
0.452576
0.450745
0.448608
0.446167
0.444946
0.443115
0.441589
0.440979
0.438843
0.437317
0.435181
0.433655
0.432739
0.430298
0.428467
0.426941
0.425415
0.424194
0.422668
0.421448
0.419006
0.418091
0.41687
0.415039
0.413513
0.412598
0.411072
0.410156
0.40863
0.408325
0.406799
0.405579
0.404053
0.402527
0.403137
0.401306
0.39978
0.398865
0.39856
0.397644
0.396423
0.395813
0.395813
0.393677
0.392456
0.391235
0.391846
0.390625
0.389709
0.389099
0.388489
0.388184
0.387268
0.386658
0.386353
0.385437
0.384827
0.383911
0.383911
0.38269
0.38269
0.38147
0.38208
0.38147
0.380859
0.380554
0.379333
0.379333
0.379333
0.378418
0.378113
0.378418
0.376892
0.377808
0.377808
0.377502
0.376587
0.376587
0.376587
0.376587
0.376282
0.375671
0.375671
0.375977
0.375671
0.375061
0.375366
0.375061
0.374756
0.374756
0.375061
0.375061
0.374756
0.375061
0.375671
0.374756
0.374756
0.375366
0.375366
0.375061
0.375061
0.374146
0.374451
0.375061
0.374756
0.374146
0.374756
0.374146
0.374451
0.374451
0.374146
0.374451
0.374451
0.375061
0.375061
0.375366
0.374756
0.375366
0.374756
0.375366
0.375061
0.374756
0.375061
0.375671
0.375061
0.375366
0.375061
0.375061
0.375671
0.375366
0.375061
0.375671
0.375671
0.375671
0.376282
0.375977
0.376892
0.376892
0.375977
0.377197
0.376892
0.376892
0.376892
0.377502
0.377502
0.377502
0.376892
0.377502
0.378113
0.378113
0.376892
0.377808
0.377808
0.378418
0.377502
0.378723
0.379028
0.379028
0.379028
0.379028
0.378418
0.378418
0.379028
0.379028
0.379333
0.379333
0.379639
0.379944
0.379333
0.380554
0.380554
0.380859
0.380859
0.38147
0.381775
0.38208
0.381775
0.382385
0.38269
0.383301
0.383301
0.384827
0.385132
0.384521
0.385742
0.385132
0.386047
0.386353
0.386353
0.387878
0.387573
0.388489
0.388489
0.389099
0.389404
0.39032
0.391235
0.391541
0.392151
0.392456
0.393372
0.393066
0.394897
0.395203
0.395813
0.395813
0.396729
0.396729
0.397644
0.397949
0.398865
0.399475
0.39978
0.400391
0.401306
0.402222
0.402527
0.403442
0.404663
0.404968
0.406189
0.406494
0.40802
0.409241
0.409546
0.411377
0.411987
0.413513
0.415039
0.41687
0.418091
0.419922
0.422058
0.423889
0.426331
0.428772
0.431213
0.43396
0.436707
0.439758
0.4422
0.446167
0.450134
0.454102
0.457764
0.462036
0.466614
0.470581
0.475464
0.481262
0.486145
0.491028
0.497131
0.503235
0.509338
0.516052
0.522156
0.529785
0.536499
0.544128
0.552368
0.560303
0.567932
0.576782
0.584106
0.592957
0.601196
0.611267
0.619202
0.628662
0.637207
0.646973
0.656738
0.666504
0.676575
0.686951
0.696716
0.706482
0.716248
0.726929
0.736084
0.74646
0.757141
0.766907
0.776978
0.787048
0.797424
0.806274
0.816345
0.826416
0.835571
0.844421
0.854187
0.863342
0.871887
0.882263
0.890198
0.898438
0.907288
0.915222
0.923462
0.931702
0.938416
0.945129
0.951843
0.958862
0.965271
0.97168
0.978088
0.983582
0.988464
0.992737
0.998535
1.00281
1.00677
1.01105
1.0144
1.01868
1.02173
1.02417
1.02692
1.02936
1.03119
1.03333
1.03394
1.03546
1.03638
1.0379
1.03699
1.0379
1.0379
1.03668
1.03638
1.03546
1.03394
1.03333
1.0318
1.03027
1.02844
1.02631
1.02325
1.02173
1.01898
1.01593
1.01288
1.00952
1.00586
1.00311
0.999146
0.995178
0.991821
0.987854
0.983582
0.979309
0.975037
0.971069
0.967102
0.961914
0.958557
0.953674
0.948486
0.944824
0.939636
0.935059
0.930176
0.925598
0.920715
0.915833
0.91156
0.906067
0.901184
0.896301
0.891113
0.887756
0.882874
0.878296
0.873108
0.86853
0.864563
0.85907
0.855713
0.850525
0.846558
0.84198
0.837402
0.83252
0.828857
0.823669
0.820007
0.814819
0.811157
0.807495
0.804443
0.800476
0.795288
0.791626
0.787659
0.784607
0.780945
0.776672
0.773315
0.770874
0.766907
0.763855
0.760193
0.757141
0.754089
0.751038
0.747986
0.744629
0.741577
0.739136
0.735474
0.733032
0.730896
0.728149
0.724487
0.723267
