0.0906372
0.0889587
0.0872803
0.0852966
0.0827026
0.0796509
0.0772095
0.0741577
0.0712585
0.0680542
0.0650024
0.0611877
0.0587463
0.055542
0.0531006
0.0506592
0.0480652
0.0450134
0.0424194
0.0398254
0.0366211
0.0334167
0.0296021
0.0257874
0.0212097
0.0167847
0.0117493
0.00732422
0.00259399
-0.00167847
-0.00610352
-0.0102234
-0.0137329
-0.017395
-0.0201416
-0.0227356
-0.0248718
-0.0273132
-0.0291443
-0.0309753
-0.032959
-0.0341797
-0.0366211
-0.0390625
-0.0416565
-0.0440979
-0.0465393
-0.0492859
-0.0515747
-0.0541687
-0.0566101
-0.0585938
-0.0604248
-0.0622559
-0.0636292
-0.0648499
-0.065918
-0.0669861
-0.0679016
-0.0691223
-0.0701904
-0.0712585
-0.0723267
-0.0741577
-0.0753784
-0.0772095
-0.0787354
-0.0801086
-0.0819397
-0.0831604
-0.0843811
-0.0857544
-0.0862122
-0.0869751
-0.0868225
-0.0866699
-0.0860596
-0.0856018
-0.0848389
-0.0843811
-0.0839233
-0.0831604
-0.0828552
-0.08255
-0.08255
-0.0822449
-0.0817871
-0.0819397
-0.0817871
-0.0808716
-0.0810242
-0.0804138
-0.0796509
-0.0782776
-0.0770569
-0.0753784
-0.0740051
-0.0724792
-0.0714111
-0.0701904
-0.0691223
-0.0682068
-0.067749
-0.0674438
-0.0675964
-0.0680542
-0.0680542
-0.0682068
-0.0686646
-0.0688171
-0.0688171
-0.0686646
-0.0680542
-0.0675964
-0.0665283
-0.0654602
-0.0645447
-0.063324
-0.0622559
-0.0613403
-0.0604248
-0.0598145
-0.0587463
-0.0585938
-0.0585938
-0.0584412
-0.0585938
-0.0585938
-0.0585938
-0.0579834
-0.058136
-0.0569153
-0.0563049
-0.0550842
-0.0532532
-0.0514221
-0.0498962
-0.04776
-0.0456238
-0.0439453
-0.0419617
-0.0404358
-0.0389099
-0.0378418
-0.0364685
-0.0360107
-0.0357056
-0.0354004
-0.03479
-0.0340271
-0.0337219
-0.0328064
-0.032196
-0.0308228
-0.0296021
-0.0279236
-0.0265503
-0.025177
-0.0231934
-0.0218201
-0.0204468
-0.0195312
-0.0184631
-0.0183105
-0.0180054
-0.0178528
-0.0175476
-0.0180054
-0.0183105
-0.0180054
-0.0184631
-0.018158
-0.0175476
-0.0170898
-0.0167847
-0.015564
-0.0152588
-0.0140381
-0.0137329
-0.0128174
-0.012207
-0.0120544
-0.0117493
-0.0117493
-0.012207
-0.0128174
-0.0135803
-0.0141907
-0.0143433
-0.0146484
-0.0154114
-0.0157166
-0.0152588
-0.0152588
-0.0143433
-0.0138855
-0.01297
-0.0119019
-0.0112915
-0.0108337
-0.0105286
-0.0106812
-0.0109863
-0.0112915
-0.01297
-0.0144958
-0.0154114
-0.0167847
-0.018158
-0.0192261
-0.0205994
-0.0213623
-0.0222778
-0.0228882
-0.0233459
-0.0233459
-0.0231934
-0.0231934
-0.0231934
-0.0228882
-0.0233459
-0.0239563
-0.0241089
-0.0248718
-0.0254822
-0.0268555
-0.027771
-0.0288391
-0.0299072
-0.030365
-0.0315857
-0.032196
-0.0325012
-0.0323486
-0.0325012
-0.0323486
-0.0318909
-0.0318909
-0.0312805
-0.0314331
-0.0308228
-0.0309753
-0.0309753
-0.0315857
-0.032196
-0.0331116
-0.0335693
-0.0344849
-0.0349426
-0.035553
-0.035553
-0.035553
-0.0349426
-0.0340271
-0.0325012
-0.0308228
-0.0288391
-0.0271606
-0.0248718
-0.0228882
-0.020752
-0.0184631
-0.0166321
-0.0154114
-0.0140381
-0.0134277
-0.0125122
-0.0115967
-0.0105286
-0.00976562
-0.0088501
-0.00732422
-0.00595093
-0.00350952
-0.000762939
0.00167847
0.00488281
0.00839233
0.0115967
0.014801
0.018158
0.0215149
0.0241089
0.0273132
0.0299072
0.0326538
0.0352478
0.0378418
0.0396729
0.0421143
0.0436401
0.045929
0.04776
0.0494385
0.0509644
0.0518799
0.0532532
0.0544739
0.0549316
0.055542
0.055542
0.055542
0.0553894
0.0550842
0.0535583
0.0521851
0.050354
0.0485229
0.0466919
0.0447083
0.042572
0.0398254
0.0379944
0.0358582
0.0332642
0.0305176
0.0280762
0.025177
0.0221252
0.0178528
0.0138855
0.00900269
0.00396729
-0.00167847
-0.00823975
-0.0144958
-0.0209045
-0.0271606
-0.0335693
-0.0393677
-0.0447083
-0.0497437
-0.0544739
-0.0584412
-0.0621033
-0.0645447
-0.0672913
-0.0692749
-0.071106
-0.0723267
-0.0738525
-0.0753784
-0.0767517
-0.078125
-0.0798035
-0.0811768
-0.0827026
-0.0840759
-0.085144
-0.0860596
-0.0871277
-0.0881958
-0.0889587
-0.0886536
-0.0889587
-0.0886536
-0.088501
-0.0878906
-0.0874329
-0.0869751
-0.0863647
-0.0857544
-0.085907
-0.0856018
-0.085907
-0.0860596
-0.0869751
-0.0874329
-0.0875854
-0.0880432
-0.0883484
-0.0888062
-0.0889587
-0.0883484
-0.0883484
-0.0872803
-0.0869751
-0.0863647
-0.0860596
-0.0857544
-0.0854492
-0.085144
-0.085144
-0.085144
-0.0854492
-0.085907
-0.0857544
-0.0852966
-0.0849915
-0.0845337
-0.0830078
-0.0813293
-0.0788879
-0.0759888
-0.0726318
-0.0694275
-0.0663757
-0.0628662
-0.0598145
-0.0564575
-0.052948
-0.0491333
-0.0448608
-0.0401306
-0.0346375
-0.0280762
-0.0201416
-0.0111389
-0.000457764
0.0126648
0.0282288
0.0471497
0.070343
0.0987244
0.132294
0.170746
0.214081
0.260925
0.310364
0.361938
0.414276
0.46814
0.521545
0.575562
0.628357
0.679169
0.727081
0.769958
0.806885
0.836792
0.858154
0.869751
0.871124
0.862427
0.842438
0.812378
0.77179
0.721893
0.662689
0.595398
0.520782
0.440674
0.355835
0.267639
0.178528
0.0900269
0.00366211
-0.0790405
-0.156403
-0.227051
-0.29007
-0.344391
-0.388947
-0.424347
-0.449219
-0.465546
-0.47226
-0.470581
-0.461273
-0.445404
-0.424347
-0.397949
-0.369263
-0.337982
-0.306244
-0.27359
-0.241852
-0.212097
-0.184326
-0.159149
-0.137329
-0.118713
-0.103912
-0.0915527
-0.0828552
-0.0770569
-0.0741577
-0.0738525
-0.0756836
-0.0790405
-0.0837708
-0.0892639
-0.0953674
-0.101776
-0.108185
-0.114746
-0.120392
-0.124969
-0.128937
-0.132294
-0.13443
-0.135193
-0.135651
-0.134888
-0.133362
-0.131378
-0.128632
-0.125122
-0.122223
-0.119171
-0.116119
-0.112915
-0.110474
-0.108337
-0.106354
-0.10498
-0.10376
-0.102844
-0.102081
-0.100861
-0.100098
-0.0991821
-0.0976562
-0.096283
-0.0946045
-0.0927734
-0.0906372
-0.0889587
-0.0869751
-0.0848389
-0.0831604
-0.0814819
-0.0802612
-0.0788879
-0.0779724
-0.0772095
-0.0762939
-0.0756836
-0.0749207
-0.0740051
-0.0730896
-0.0720215
-0.0708008
-0.0694275
-0.067749
-0.0663757
-0.0645447
-0.0628662
-0.0608826
-0.0596619
-0.0582886
-0.0572205
-0.0559998
-0.0553894
-0.0546265
-0.0537109
-0.052948
-0.0521851
-0.0515747
-0.0506592
-0.0494385
-0.0485229
-0.0466919
-0.0453186
-0.0431824
-0.0410461
-0.0389099
-0.0364685
-0.0340271
-0.0315857
-0.0289917
-0.0268555
-0.0250244
-0.0230408
-0.0216675
-0.0204468
-0.0190735
-0.0180054
-0.0172424
-0.0160217
-0.0146484
-0.0135803
-0.0123596
-0.0102234
-0.00839233
-0.00610352
-0.0038147
-0.00152588
0.000457764
0.00259399
0.00442505
0.0062561
0.00823975
0.00915527
0.0100708
0.0112915
0.012207
0.0128174
0.0137329
0.0143433
0.0160217
0.0169373
0.0183105
0.0205994
0.0227356
0.025177
0.0276184
0.0305176
0.032959
0.0352478
0.0376892
0.039978
0.0416565
0.0436401
0.0454712
0.0465393
0.0479126
0.0489807
0.0505066
0.0515747
0.0524902
0.0544739
0.055542
0.0570679
0.0588989
0.0605774
0.062561
0.0642395
0.0657654
0.0672913
0.0680542
0.0692749
0.0697327
0.0695801
0.0692749
0.0692749
0.0683594
0.067749
0.0671387
0.0665283
0.0657654
0.0648499
0.0648499
0.065155
0.0654602
0.0660706
0.0662231
0.0665283
0.0668335
0.0669861
0.067749
0.0675964
0.0669861
0.0668335
0.0660706
0.0650024
0.0636292
0.0621033
0.06073
0.0593567
0.0576782
0.0563049
0.0550842
0.0540161
0.052948
0.0520325
0.0512695
0.0505066
0.0491333
0.04776
0.0463867
0.0448608
0.042572
0.0401306
0.0375366
0.0338745
0.0308228
0.0270081
0.0228882
0.0192261
0.0146484
0.0105286
0.00656128
0.00259399
-0.000762939
-0.00427246
-0.00808716
-0.0114441
-0.015564
-0.0184631
-0.0224304
-0.0260925
-0.0302124
-0.0344849
-0.0386047
-0.0431824
-0.0479126
-0.0523376
-0.0566101
-0.0605774
-0.0645447
-0.068512
-0.0721741
-0.0753784
-0.0785828
-0.0814819
-0.0843811
-0.0871277
-0.0895691
-0.0924683
-0.0952148
-0.098114
-0.101318
-0.104523
-0.107727
-0.110931
-0.114441
-0.117493
-0.120697
-0.123291
-0.126038
-0.128021
-0.129547
-0.130615
-0.131531
-0.132141
-0.132141
-0.132294
-0.132446
-0.132751
-0.132294
-0.132294
-0.132446
-0.132751
-0.133514
-0.133514
-0.134277
-0.13443
-0.134888
-0.134735
-0.134735
-0.13443
-0.133514
-0.132599
-0.13092
-0.129242
-0.127258
-0.125122
-0.123138
-0.12146
-0.119629
-0.117798
-0.116425
-0.115356
-0.114746
-0.114288
-0.114288
-0.113831
-0.113678
-0.113373
-0.113068
-0.11261
-0.111847
-0.111084
-0.109558
-0.108643
-0.106812
-0.105438
-0.10437
-0.102234
-0.100861
-0.0993347
-0.0976562
-0.0965881
-0.0956726
-0.0946045
-0.0935364
-0.0924683
-0.0912476
-0.0900269
-0.0888062
-0.0874329
-0.085907
-0.0840759
-0.0816345
-0.0798035
-0.0775146
-0.075531
-0.0732422
-0.0718689
-0.0700378
-0.0686646
-0.0675964
-0.0665283
-0.0668335
-0.0672913
-0.0674438
-0.0674438
-0.0675964
-0.067749
-0.067749
-0.0672913
-0.0669861
-0.0662231
-0.0648499
-0.0634766
-0.0621033
-0.06073
-0.0592041
-0.057373
-0.0564575
-0.0547791
-0.0534058
-0.0527954
-0.0520325
-0.0517273
-0.0508118
-0.0505066
-0.0497437
-0.0488281
-0.0479126
-0.0473022
-0.0460815
-0.0447083
-0.0431824
-0.0416565
-0.0395203
-0.0375366
-0.0358582
-0.0343323
-0.0326538
-0.0311279
-0.0299072
-0.0292969
-0.0285339
-0.0283813
-0.0282288
-0.0285339
-0.0283813
-0.0282288
-0.0285339
-0.0288391
-0.0283813
-0.0279236
-0.0274658
-0.0265503
-0.0256348
-0.025177
-0.0242615
-0.0233459
-0.0227356
-0.0221252
-0.0221252
-0.0216675
-0.0218201
-0.0221252
-0.0222778
-0.0224304
-0.0227356
-0.0228882
-0.0230408
-0.022583
-0.0227356
-0.0218201
-0.0212097
-0.0202942
-0.0190735
-0.0184631
-0.0175476
-0.0167847
-0.0161743
-0.015564
-0.015564
-0.0163269
-0.0166321
-0.0172424
-0.018158
-0.0189209
-0.0202942
-0.0205994
-0.0213623
-0.0216675
-0.0215149
-0.0216675
-0.0215149
-0.0212097
-0.0212097
-0.0205994
-0.0201416
-0.0198364
-0.0196838
-0.0193787
-0.0195312
-0.0202942
-0.0204468
-0.0213623
-0.0219727
-0.0221252
-0.0227356
-0.0231934
-0.0231934
-0.0227356
-0.0224304
-0.0212097
-0.0195312
-0.0178528
-0.0160217
-0.0137329
-0.0117493
-0.00961304
-0.00717163
-0.00457764
-0.00259399
-0.000610352
0.000152588
0.00137329
0.00289917
0.00350952
0.00488281
0.00564575
0.00671387
0.00762939
0.00900269
0.0100708
0.0115967
0.0140381
0.0160217
0.018158
0.020752
0.0236511
0.0263977
0.0292969
0.0320435
0.0341797
0.0369263
0.0387573
0.0410461
0.0434875
0.0456238
0.0482178
0.0509644
0.0537109
0.0570679
0.0598145
0.0630188
0.0660706
0.0689697
0.0714111
0.0735474
0.0753784
0.0769043
0.0778198
0.078125
0.0782776
0.0776672
0.0770569
0.075531
0.0743103
0.0732422
0.0718689
0.070343
0.0694275
0.0679016
0.0665283
0.0654602
0.0637817
0.062561
0.0610352
0.0592041
0.0572205
0.0546265
0.0514221
0.0479126
0.0444031
0.0396729
0.0346375
0.0286865
0.0227356
0.0164795
0.0105286
0.00396729
-0.00213623
-0.00808716
-0.0138855
-0.0198364
-0.0250244
-0.0296021
-0.03479
-0.0393677
-0.0439453
-0.04776
-0.0520325
-0.0564575
-0.0601196
-0.0639343
-0.0682068
-0.0714111
-0.0747681
-0.0776672
-0.0801086
-0.0820923
-0.0842285
-0.0854492
-0.0862122
-0.0860596
-0.0868225
-0.0866699
-0.0860596
-0.0862122
-0.0862122
-0.085907
-0.0857544
-0.0856018
-0.085907
-0.0866699
-0.0874329
-0.0883484
-0.0891113
-0.0901794
-0.0904846
-0.0914001
-0.0917053
-0.0918579
-0.0918579
-0.0914001
-0.0909424
-0.090332
-0.0895691
-0.0888062
-0.0880432
-0.087738
-0.0872803
-0.0871277
-0.0872803
-0.0874329
-0.0878906
-0.088501
-0.088501
-0.088501
-0.0889587
-0.0888062
-0.0886536
-0.0875854
-0.0868225
-0.0849915
-0.0830078
-0.0801086
-0.0773621
-0.0744629
-0.0717163
-0.0689697
-0.0671387
-0.0646973
-0.0631714
-0.0617981
-0.0598145
-0.057373
-0.0541687
-0.0498962
-0.0447083
-0.0378418
-0.0296021
-0.0189209
-0.00671387
0.00839233
0.0271606
0.0482178
0.0750732
0.106354
0.142975
0.184479
0.23056
0.280457
0.332642
0.386963
0.442047
0.499115
0.556183
0.613708
0.670013
0.724792
0.775604
0.822449
0.862427
0.894623
0.917969
0.931091
0.93277
0.922852
0.901642
0.868683
0.825043
0.771179
0.70694
0.63446
0.554047
0.468292
0.378113
0.285187
0.191498
0.098877
0.00946045
-0.0752258
-0.153656
-0.224762
-0.287323
-0.340271
-0.382996
-0.416412
-0.439453
-0.453186
-0.457611
-0.453491
-0.441589
-0.423737
-0.399933
-0.372009
-0.340729
-0.307465
-0.27298
-0.2388
-0.205536
-0.174255
-0.145416
-0.119934
-0.0971985
-0.0784302
-0.063324
-0.0520325
-0.0442505
-0.0396729
-0.0382996
-0.0393677
-0.042572
-0.0476074
-0.0535583
-0.0604248
-0.0675964
-0.0743103
-0.080719
-0.0863647
-0.0912476
-0.0949097
-0.0976562
-0.0994873
-0.100403
-0.100098
-0.0994873
-0.098114
-0.0967407
-0.0949097
-0.0927734
-0.0907898
-0.0894165
-0.0883484
-0.0866699
-0.085907
-0.0849915
-0.0842285
-0.0836182
-0.0828552
-0.0820923
-0.0810242
-0.0798035
-0.0791931
-0.0773621
-0.0762939
-0.0749207
-0.0732422
-0.0718689
-0.0701904
-0.0688171
-0.0679016
-0.0666809
-0.0656128
-0.065155
-0.0642395
-0.0634766
-0.0631714
-0.0621033
-0.0613403
-0.0601196
-0.0593567
-0.0576782
-0.0563049
-0.0546265
-0.0526428
-0.0508118
-0.0489807
-0.0474548
-0.0456238
-0.0439453
-0.043335
-0.042572
-0.0422668
-0.0411987
-0.0411987
-0.0405884
-0.039978
-0.0393677
-0.0386047
-0.0379944
-0.0369263
-0.035553
-0.0335693
-0.0320435
-0.0296021
-0.027771
-0.0256348
-0.0238037
-0.0219727
-0.0204468
-0.0190735
-0.018158
-0.0172424
-0.0167847
-0.0167847
-0.0161743
-0.015564
-0.0151062
-0.0144958
-0.0137329
-0.0126648
-0.0111389
-0.00976562
-0.00793457
-0.00564575
-0.00350952
-0.00183105
0.000762939
0.00259399
0.0050354
0.0062561
0.00854492
0.00961304
0.0109863
0.0117493
0.0126648
0.0137329
0.0149536
0.0158691
0.0169373
0.0186157
0.0204468
0.0224304
0.0245667
0.0268555
0.0286865
0.0306702
0.032959
0.0350952
0.0370789
0.0384521
0.0396729
0.0408936
0.0419617
0.0424194
0.0431824
0.0444031
0.0454712
0.0466919
0.0480652
0.0498962
0.0511169
0.0534058
0.0556946
0.0584412
0.06073
0.063324
0.0654602
0.0682068
0.070343
0.0721741
0.0740051
0.0756836
0.0767517
0.0778198
0.0785828
0.0799561
0.0814819
0.08255
0.0840759
0.0852966
0.0872803
0.0888062
0.0906372
0.0921631
0.0935364
0.0952148
0.0956726
0.0967407
0.0975037
0.0973511
0.0967407
0.09552
0.0946045
0.0926208
0.0907898
0.0889587
0.0872803
0.0848389
0.0830078
0.0810242
0.0798035
0.0782776
0.0772095
0.0759888
0.0744629
0.0730896
0.0718689
0.0704956
0.068512
0.0669861
0.0646973
0.0622559
0.0595093
0.0569153
0.0543213
0.0509644
0.0480652
0.0457764
0.0430298
0.0401306
0.0379944
0.0361633
0.0337219
0.0317383
0.0299072
0.027771
0.0253296
0.0231934
0.0205994
0.017395
0.0138855
0.0102234
0.0062561
0.00259399
-0.00167847
-0.00579834
-0.00991821
-0.0140381
-0.0177002
-0.0215149
-0.0247192
-0.027771
-0.030365
-0.0334167
-0.0357056
-0.0382996
-0.0405884
-0.0431824
-0.0457764
-0.0486755
-0.0515747
-0.0550842
-0.0582886
-0.0621033
-0.0654602
-0.0688171
-0.0717163
-0.0747681
-0.0778198
-0.0796509
-0.0819397
-0.0837708
-0.0854492
-0.0868225
-0.0875854
-0.0888062
-0.0898743
-0.0909424
-0.0924683
-0.0932312
-0.0942993
-0.0961304
-0.0968933
-0.0982666
-0.0994873
-0.100708
-0.101166
-0.101776
-0.102386
-0.102997
-0.102386
-0.102081
-0.101318
-0.100098
-0.0993347
-0.0984192
-0.0976562
-0.0965881
-0.0959778
-0.0953674
-0.0950623
-0.09552
-0.0953674
-0.0956726
-0.0958252
-0.0959778
-0.0961304
-0.0959778
-0.0952148
-0.0947571
-0.093689
-0.0921631
-0.0909424
-0.0895691
-0.0878906
-0.0860596
-0.0843811
-0.0831604
-0.0817871
-0.080719
-0.0793457
-0.0788879
-0.0785828
-0.0779724
-0.0776672
-0.0775146
-0.0767517
-0.0764465
-0.075531
-0.0746155
-0.0735474
-0.0720215
-0.0700378
-0.0683594
-0.0663757
-0.0645447
-0.0628662
-0.0613403
-0.0598145
-0.0584412
-0.0575256
-0.0564575
-0.0563049
-0.0556946
-0.0553894
-0.0552368
-0.0549316
-0.0544739
-0.0540161
-0.0532532
-0.0526428
-0.0511169
-0.0500488
-0.0491333
-0.0474548
-0.0463867
-0.045166
-0.0439453
-0.0428772
-0.0424194
-0.0419617
-0.0413513
-0.0413513
-0.0410461
-0.0413513
-0.0411987
-0.0410461
-0.0404358
-0.0401306
-0.0396729
-0.0389099
-0.0375366
-0.0364685
-0.0352478
-0.0338745
-0.0326538
-0.0314331
-0.0305176
-0.0299072
-0.0292969
-0.0288391
-0.0286865
-0.0288391
-0.0291443
-0.0291443
-0.0292969
-0.0292969
-0.0292969
-0.0292969
-0.0288391
-0.0279236
-0.0270081
-0.0254822
-0.0244141
-0.0230408
-0.0215149
-0.0201416
-0.0192261
-0.0180054
-0.0169373
-0.0164795
-0.0163269
-0.0158691
-0.0158691
-0.0157166
-0.0157166
-0.0157166
-0.0160217
-0.0157166
-0.015564
-0.0151062
-0.0146484
-0.0138855
-0.0131226
-0.0125122
-0.0117493
-0.0111389
-0.0111389
-0.0105286
-0.0108337
-0.0115967
-0.0126648
-0.0134277
-0.0146484
-0.0158691
-0.0167847
-0.018158
-0.0187683
-0.0198364
-0.0205994
-0.0204468
-0.0204468
-0.0202942
-0.019989
-0.0195312
-0.0190735
-0.0187683
-0.0187683
-0.0186157
-0.0186157
-0.0189209
-0.0192261
-0.0202942
-0.0209045
-0.0216675
-0.022583
-0.0231934
-0.0238037
-0.0245667
-0.0244141
-0.0241089
-0.0236511
-0.0228882
-0.0221252
-0.0213623
-0.0198364
-0.0183105
-0.0175476
-0.0160217
-0.0146484
-0.0135803
-0.0131226
-0.0123596
-0.0114441
-0.010376
-0.00991821
-0.00854492
-0.00778198
-0.0062561
-0.00473022
-0.00274658
-0.000762939
0.0012207
0.00350952
0.00564575
0.00778198
0.0102234
0.0119019
0.0137329
0.0152588
0.0157166
0.0160217
0.0160217
0.0163269
0.0169373
0.0164795
0.0170898
0.0180054
0.0187683
0.020752
0.0224304
0.0247192
0.0274658
0.030365
0.0335693
0.0366211
0.0396729
0.0427246
0.0456238
0.0489807
0.0518799
0.0544739
0.0572205
0.0593567
0.0614929
0.0630188
0.0646973
0.0660706
0.0671387
0.0683594
0.0689697
0.0697327
0.070343
0.071106
0.0714111
0.0714111
0.0709534
0.070343
0.0695801
0.0679016
0.0665283
0.0639343
0.0613403
0.0582886
0.0549316
0.0512695
0.0479126
0.0439453
0.040741
0.037384
0.0335693
0.0300598
0.0263977
0.0227356
0.0189209
0.0146484
0.0100708
0.00518799
0.000152588
-0.00518799
-0.0112915
-0.0175476
-0.0233459
-0.0297546
-0.0358582
-0.0422668
-0.0476074
-0.0526428
-0.0579834
-0.0624084
-0.0662231
-0.0695801
-0.0723267
-0.0746155
-0.0759888
-0.0775146
-0.0784302
-0.0794983
-0.0796509
-0.0799561
-0.0802612
-0.0808716
-0.0814819
-0.0816345
-0.0816345
-0.0820923
-0.0819397
-0.0813293
-0.0808716
-0.0805664
-0.0796509
-0.0788879
-0.0773621
-0.0765991
-0.0758362
-0.0743103
-0.0737
-0.072937
-0.0726318
-0.0724792
-0.072937
-0.0735474
-0.0743103
-0.0752258
-0.0762939
-0.0770569
-0.0779724
-0.0787354
-0.0793457
-0.0796509
-0.0796509
-0.0793457
-0.0790405
-0.0784302
-0.0772095
-0.0765991
-0.0756836
-0.0750732
-0.0741577
-0.0737
-0.0732422
-0.0727844
-0.0730896
-0.0727844
-0.0723267
-0.0715637
-0.0708008
-0.0695801
-0.0683594
-0.0671387
-0.0653076
-0.0640869
-0.062561
-0.06073
-0.0582886
-0.0553894
-0.0520325
-0.0474548
-0.0419617
-0.0357056
-0.0282288
-0.0187683
-0.00839233
0.00411987
0.019989
0.0387573
0.0616455
0.0895691
0.122986
0.161438
0.204773
0.253143
0.305023
0.358734
0.414429
0.471802
0.529327
0.5867
0.644226
0.699615
0.750885
0.797577
0.838623
0.870972
0.894623
0.908051
0.91095
0.90271
0.882416
0.851746
0.809631
0.757904
0.697021
0.627136
0.550079
0.467072
0.379944
0.289764
0.198364
0.107574
0.0190735
-0.065155
-0.14389
-0.215759
-0.279236
-0.333405
-0.377655
-0.411987
-0.436249
-0.450592
-0.454712
-0.450439
-0.438385
-0.419006
-0.393982
-0.364532
-0.332184
-0.298004
-0.262909
-0.228119
-0.194702
-0.163879
-0.13504
-0.110626
-0.0892639
-0.0718689
-0.058136
-0.0479126
-0.0413513
-0.0379944
-0.0364685
-0.0376892
-0.0404358
-0.0444031
-0.0491333
-0.0550842
-0.0608826
-0.0669861
-0.0721741
-0.0779724
-0.08255
-0.0871277
-0.0906372
-0.0939941
-0.0959778
-0.0970459
-0.0982666
-0.098114
-0.0976562
-0.0958252
-0.0942993
-0.0918579
-0.0892639
-0.0860596
-0.083313
-0.0804138
-0.0782776
-0.075531
-0.0735474
-0.0720215
-0.0708008
-0.0695801
-0.0691223
-0.0689697
-0.0689697
-0.0688171
-0.0686646
-0.068512
-0.0683594
-0.0679016
-0.0668335
-0.0654602
-0.0643921
-0.0630188
-0.0614929
-0.0598145
-0.0579834
-0.0564575
-0.0549316
-0.0535583
-0.0521851
-0.0514221
-0.050354
-0.0497437
-0.0486755
-0.04776
-0.0473022
-0.0462341
-0.045166
-0.0442505
-0.0422668
-0.0410461
-0.0390625
-0.0375366
-0.0358582
-0.0338745
-0.0328064
-0.0309753
-0.0297546
-0.0288391
-0.027771
-0.0273132
-0.0273132
-0.0267029
-0.0265503
-0.0260925
-0.0259399
-0.0253296
-0.0250244
-0.0244141
-0.0228882
-0.0221252
-0.0204468
-0.0186157
-0.0175476
-0.0157166
-0.0144958
-0.01297
-0.0117493
-0.0109863
-0.0100708
-0.00961304
-0.00915527
-0.00823975
-0.00793457
-0.00762939
-0.00686646
-0.00610352
-0.00518799
-0.0038147
-0.00183105
-0.000152588
0.00198364
0.00488281
0.00671387
0.00930786
0.0117493
0.0140381
0.0164795
0.0184631
0.0202942
0.0219727
0.0230408
0.0245667
0.0257874
0.0270081
0.0282288
0.0296021
0.0311279
0.0328064
0.0350952
0.037384
0.0395203
0.042572
0.0453186
0.0479126
0.0506592
0.0534058
0.0563049
0.0585938
0.0605774
0.0621033
0.0642395
0.0656128
0.0672913
0.0686646
0.0698853
0.0715637
0.0730896
0.0746155
0.0769043
0.0787354
0.0813293
0.0828552
0.0849915
0.0868225
0.0888062
0.0900269
0.0917053
0.0926208
0.093689
0.0935364
0.0938416
0.0938416
0.0935364
0.0933838
0.0932312
0.092926
0.0927734
0.092926
0.0932312
0.0938416
0.0947571
0.0953674
0.0958252
0.0961304
0.0967407
0.0973511
0.0976562
0.0976562
0.0970459
0.096283
0.0958252
0.0946045
0.0933838
0.0921631
0.0909424
0.0895691
0.0881958
0.0872803
0.0863647
0.0857544
0.085144
0.0843811
0.0836182
0.0822449
0.0813293
0.0804138
0.0785828
0.0770569
0.0743103
0.0715637
0.0689697
0.0654602
0.0617981
0.058136
0.0549316
0.0509644
0.0468445
0.043335
0.0395203
0.0361633
0.0331116
0.0297546
0.0265503
0.0231934
0.0193787
0.0157166
0.0120544
0.00778198
0.00350952
-0.000762939
-0.00579834
-0.0106812
-0.0152588
-0.0193787
-0.0242615
-0.0286865
-0.0326538
-0.0363159
-0.0396729
-0.0427246
-0.045166
-0.0480652
-0.050354
-0.0526428
-0.0553894
-0.0575256
-0.0593567
-0.0624084
-0.0654602
-0.0682068
-0.071106
-0.0741577
-0.0770569
-0.0796509
-0.0827026
-0.085144
-0.0872803
-0.0894165
-0.0906372
-0.0914001
-0.0924683
-0.0927734
-0.0930786
-0.0930786
-0.0933838
-0.0933838
-0.0941467
-0.0941467
-0.0946045
-0.0949097
-0.096283
-0.0968933
-0.0976562
-0.0984192
-0.0987244
-0.0993347
-0.0997925
-0.0999451
-0.0997925
-0.0993347
-0.0987244
-0.098114
-0.0968933
-0.0959778
-0.0950623
-0.0941467
-0.093689
-0.0933838
-0.0932312
-0.0935364
-0.0935364
-0.0939941
-0.0946045
-0.0950623
-0.09552
-0.0958252
-0.0958252
-0.0959778
-0.0956726
-0.0953674
-0.0942993
-0.0938416
-0.0926208
-0.0918579
-0.091095
-0.0906372
-0.0900269
-0.0895691
-0.0895691
-0.0898743
-0.0900269
-0.0904846
-0.0907898
-0.091095
-0.0915527
-0.0914001
-0.0915527
-0.091095
-0.0907898
-0.0904846
-0.0892639
-0.0881958
-0.087738
-0.0863647
-0.0856018
-0.0845337
-0.0837708
-0.0836182
-0.0836182
-0.0839233
-0.0839233
-0.0845337
-0.0849915
-0.085144
-0.0854492
-0.0854492
-0.0852966
-0.0845337
-0.0834656
-0.0820923
-0.0805664
-0.0787354
-0.0772095
-0.0750732
-0.0730896
-0.0712585
-0.0695801
-0.0680542
-0.0665283
-0.0653076
-0.0639343
-0.063324
-0.0619507
-0.0613403
-0.0598145
-0.0593567
-0.0578308
-0.0567627
-0.0549316
-0.0532532
-0.0512695
-0.0489807
-0.0469971
-0.0444031
-0.042572
-0.0405884
-0.0386047
-0.0369263
-0.0352478
-0.0341797
-0.0331116
-0.0323486
-0.0320435
-0.0312805
-0.0311279
-0.0302124
-0.0296021
-0.0289917
-0.027771
-0.0267029
-0.0256348
-0.0245667
-0.0231934
-0.022583
-0.0209045
-0.0202942
-0.019989
-0.0195312
-0.0193787
-0.0201416
-0.0202942
-0.0215149
-0.0221252
-0.0227356
-0.0230408
-0.0238037
-0.0239563
-0.0242615
-0.0241089
-0.0234985
-0.0228882
-0.0216675
-0.0209045
-0.0204468
-0.0195312
-0.0189209
-0.0184631
-0.0178528
-0.018158
-0.018158
-0.0187683
-0.0192261
-0.0201416
-0.020752
-0.0215149
-0.0221252
-0.0233459
-0.0238037
-0.0239563
-0.0242615
-0.0244141
-0.0242615
-0.0244141
-0.0245667
-0.0241089
-0.0244141
-0.0247192
-0.0253296
-0.0260925
-0.0268555
-0.0279236
-0.0285339
-0.0300598
-0.0306702
-0.0315857
-0.0318909
-0.0323486
-0.0325012
-0.0318909
-0.0312805
-0.0297546
-0.0286865
-0.0268555
-0.0253296
-0.0233459
-0.0212097
-0.0193787
-0.0178528
-0.0160217
-0.0144958
-0.0131226
-0.0117493
-0.00991821
-0.00869751
-0.00701904
-0.00488281
-0.00320435
-0.000915527
0.00167847
0.00457764
0.00701904
0.00976562
0.0120544
0.0144958
0.0160217
0.0184631
0.0193787
0.0215149
0.022583
0.0228882
0.0244141
0.0253296
0.0263977
0.0276184
0.0285339
0.0300598
0.0317383
0.0334167
0.0360107
0.0382996
0.0411987
0.0445557
0.0479126
0.0517273
0.0550842
0.0585938
0.0622559
0.0648499
0.0671387
0.0689697
0.0698853
0.0709534
0.0717163
0.0714111
0.0712585
0.071106
0.0704956
0.0700378
0.0694275
0.0688171
0.0679016
0.0669861
0.0662231
0.0648499
0.0630188
0.06073
0.0584412
0.0552368
0.0517273
0.0474548
0.0428772
0.0386047
0.0332642
0.0285339
0.0230408
0.0172424
0.0117493
0.00549316
0.000152588
-0.00564575
-0.0117493
-0.0175476
-0.0236511
-0.0292969
-0.0352478
-0.0410461
-0.0469971
-0.0526428
-0.0585938
-0.0645447
-0.0706482
-0.0761414
-0.0813293
-0.0860596
-0.0906372
-0.0942993
-0.098114
-0.100403
-0.102539
-0.104218
-0.10498
-0.105133
-0.105438
-0.105591
-0.104828
-0.104523
-0.103455
-0.103455
-0.103302
-0.102997
-0.103607
-0.103455
-0.104218
-0.103912
-0.10437
-0.104523
-0.104675
-0.104523
-0.104218
-0.103607
-0.103302
-0.102539
-0.101776
-0.101318
-0.100403
-0.0999451
-0.0990295
-0.0993347
-0.0994873
-0.0991821
-0.0997925
-0.100403
-0.100861
-0.101166
-0.101471
-0.101776
-0.101318
-0.101624
-0.101166
-0.0999451
-0.0993347
-0.0985718
-0.0971985
-0.0958252
-0.0942993
-0.092926
-0.0917053
-0.0901794
-0.088501
-0.087738
-0.0865173
-0.0849915
-0.0836182
-0.0822449
-0.0819397
-0.080719
-0.0796509
-0.0779724
-0.0752258
-0.0721741
-0.0675964
-0.0617981
-0.0549316
-0.0468445
-0.0372314
-0.0253296
-0.012207
0.00335693
0.0219727
0.0434875
0.0700378
0.101318
0.137329
0.178375
0.224152
0.273132
0.324402
0.378723
0.434113
0.490417
0.547485
0.604401
0.660095
0.712891
0.760803
0.803223
0.83847
0.864563
0.88089
0.88623
0.880127
0.861969
0.832977
0.792542
0.74234
0.681915
0.612793
0.537262
0.455322
0.368805
0.279236
0.188446
0.0982666
0.0105286
-0.0726318
-0.151062
-0.222626
-0.286407
-0.340729
-0.385895
-0.421295
-0.44693
-0.462799
-0.469055
-0.466614
-0.45639
-0.439453
-0.41626
-0.388031
-0.35614
-0.322113
-0.28717
-0.25177
-0.21759
-0.185852
-0.156403
-0.130463
-0.108185
-0.0898743
-0.0762939
-0.065918
-0.0592041
-0.0563049
-0.0556946
-0.0572205
-0.0614929
-0.0662231
-0.0724792
-0.0784302
-0.0846863
-0.0907898
-0.0961304
-0.100861
-0.105286
-0.108337
-0.110931
-0.112762
-0.113831
-0.114746
-0.114899
-0.114441
-0.113983
-0.112762
-0.111542
-0.109406
-0.107727
-0.105591
-0.103302
-0.100555
-0.0978088
-0.0944519
-0.0915527
-0.0886536
-0.085907
-0.083313
-0.0813293
-0.0790405
-0.0772095
-0.0759888
-0.0747681
-0.0737
-0.0732422
-0.0726318
-0.0721741
-0.0712585
-0.0708008
-0.0698853
-0.0683594
-0.0672913
-0.0654602
-0.0637817
-0.0611877
-0.0592041
-0.0569153
-0.0546265
-0.0523376
-0.0508118
-0.0485229
-0.0473022
-0.0460815
-0.0450134
-0.0444031
-0.0434875
-0.042572
-0.0419617
-0.0410461
-0.0402832
-0.0387573
-0.0378418
-0.0358582
-0.0346375
-0.0326538
-0.0309753
-0.0292969
-0.027771
-0.0263977
-0.0250244
-0.0234985
-0.022583
-0.0222778
-0.0215149
-0.0215149
-0.0212097
-0.0204468
-0.0198364
-0.0192261
-0.018158
-0.0170898
-0.0158691
-0.0140381
-0.0123596
-0.0105286
-0.00823975
-0.00610352
-0.00442505
-0.00198364
-0.000152588
0.0012207
0.00289917
0.00396729
0.00534058
0.00579834
0.00686646
0.00747681
0.00854492
0.00915527
0.0102234
0.0117493
0.0128174
0.014801
0.0167847
0.0187683
0.0210571
0.0231934
0.025177
0.0273132
0.0289917
0.030365
0.0318909
0.0331116
0.0343323
0.035553
0.0361633
0.0370789
0.038147
0.0392151
0.0401306
0.0415039
0.0436401
0.0457764
0.0482178
0.0505066
0.0531006
0.0558472
0.058136
0.0605774
0.0628662
0.0646973
0.0663757
0.0680542
0.068512
0.0695801
0.0701904
0.0708008
0.0721741
0.072937
0.0733948
0.0743103
0.0753784
0.0769043
0.078125
0.0798035
0.0811768
0.0830078
0.0840759
0.0854492
0.0868225
0.0880432
0.0883484
0.0881958
0.0881958
0.0878906
0.0874329
0.0869751
0.0866699
0.0860596
0.0856018
0.085144
0.0848389
0.0845337
0.0846863
0.0845337
0.0845337
0.0845337
0.0839233
0.0827026
0.0819397
0.0808716
0.0791931
0.0773621
0.0750732
0.0727844
0.0701904
0.067749
0.0656128
0.0630188
0.0604248
0.0579834
0.0561523
0.0541687
0.0527954
0.0509644
0.0492859
0.0473022
0.0457764
0.043335
0.0411987
0.0390625
0.0360107
0.0328064
0.0294495
0.0257874
0.0218201
0.0178528
0.0143433
0.010376
0.00640869
0.00259399
-0.000762939
-0.00411987
-0.00762939
-0.0106812
-0.0144958
-0.0175476
-0.0210571
-0.0248718
-0.0280762
-0.0328064
-0.0367737
-0.0410461
-0.0462341
-0.0508118
-0.055542
-0.0605774
-0.065155
-0.0694275
-0.0738525
-0.0776672
-0.0808716
-0.0843811
-0.0871277
-0.0894165
-0.0918579
-0.0935364
-0.0956726
-0.098114
-0.0994873
-0.101471
-0.103607
-0.105743
-0.107727
-0.110168
-0.112
-0.113983
-0.116119
-0.117645
-0.118866
-0.119629
-0.120239
-0.12085
-0.120392
-0.120087
-0.119934
-0.119324
-0.118713
-0.118408
-0.11795
-0.117493
-0.117798
-0.117493
-0.118256
-0.118103
-0.118408
-0.118561
-0.118866
-0.119171
-0.119171
-0.119019
-0.118713
-0.11795
-0.117493
-0.116882
-0.115814
-0.115051
-0.114441
-0.113678
-0.11261
-0.11261
-0.112152
-0.112305
-0.112762
-0.11322
-0.113831
-0.114136
-0.114594
-0.114746
-0.115051
-0.114746
-0.114288
-0.113678
-0.112152
-0.110626
-0.109711
-0.108337
-0.106812
-0.105743
-0.104523
-0.103149
-0.102692
-0.102386
-0.102386
-0.102386
-0.101929
-0.102234
-0.102081
-0.101776
-0.101624
-0.101013
-0.0996399
-0.098877
-0.0968933
-0.0956726
-0.0941467
-0.0923157
-0.0907898
-0.0892639
-0.0872803
-0.085907
-0.0846863
-0.0836182
-0.0830078
-0.0820923
-0.0813293
-0.080719
-0.0798035
-0.0787354
-0.0779724
-0.0762939
-0.0746155
-0.0732422
-0.0714111
-0.0695801
-0.0674438
-0.0654602
-0.0639343
-0.0621033
-0.0604248
-0.0590515
-0.0578308
-0.0570679
-0.0569153
-0.0563049
-0.0561523
-0.0559998
-0.0559998
-0.0556946
-0.055542
-0.0550842
-0.0547791
-0.0541687
-0.0531006
-0.0518799
-0.0511169
-0.050354
-0.0488281
-0.0482178
-0.0479126
-0.0476074
-0.0476074
-0.0479126
-0.0485229
-0.0489807
-0.0498962
-0.050354
-0.0508118
-0.0517273
-0.0517273
-0.0524902
-0.0517273
-0.0512695
-0.0505066
-0.0498962
-0.0488281
-0.04776
-0.0463867
-0.0456238
-0.0445557
-0.0439453
-0.043335
-0.0431824
-0.0428772
-0.0428772
-0.0427246
-0.0428772
-0.042572
-0.0421143
-0.0421143
-0.0411987
-0.040741
-0.0390625
-0.038147
-0.0369263
-0.0358582
-0.0343323
-0.0334167
-0.0323486
-0.0312805
-0.030365
-0.0302124
-0.0299072
-0.0302124
-0.030365
-0.0309753
-0.0314331
-0.0318909
-0.0320435
-0.0328064
-0.0326538
-0.0326538
-0.032196
-0.0317383
-0.0311279
-0.0306702
-0.030365
-0.0300598
-0.0292969
-0.0288391
-0.0289917
-0.0288391
-0.0291443
-0.0296021
-0.0302124
-0.0309753
-0.0312805
-0.032196
-0.0323486
-0.0323486
-0.0323486
-0.0320435
-0.0311279
-0.0299072
-0.0289917
-0.0273132
-0.0257874
-0.0241089
-0.0224304
-0.020752
-0.0190735
-0.0180054
-0.0167847
-0.0158691
-0.0144958
-0.0134277
-0.0126648
-0.0111389
-0.00976562
-0.00823975
-0.00671387
-0.00427246
-0.00167847
0.000457764
0.00335693
0.00595093
0.00839233
0.0106812
0.0126648
0.014801
0.0163269
0.0169373
0.0180054
0.018158
0.0186157
0.0187683
0.0195312
0.019989
0.020752
0.0221252
0.0236511
0.0256348
0.0276184
0.0300598
0.0325012
0.0354004
0.0386047
0.0413513
0.0444031
0.04776
0.0511169
0.0540161
0.0566101
0.0584412
0.059967
0.0616455
0.0628662
0.0636292
0.0640869
0.0645447
0.0646973
0.0643921
0.0645447
0.0645447
0.0640869
0.0636292
0.0634766
0.0617981
0.0602722
0.0590515
0.0569153
0.0543213
0.0511169
0.0476074
0.0436401
0.0398254
0.035553
0.0309753
0.0263977
0.0215149
0.0172424
0.0125122
0.00793457
0.00289917
-0.00183105
-0.00671387
-0.0117493
-0.017395
-0.0228882
-0.0280762
-0.0338745
-0.0395203
-0.0454712
-0.0512695
-0.0572205
-0.0627136
-0.067749
-0.0724792
-0.0767517
-0.0801086
-0.0836182
-0.0862122
-0.0883484
-0.0891113
-0.0900269
-0.0901794
-0.090332
-0.090332
-0.0898743
-0.0897217
-0.0897217
-0.0897217
-0.0900269
-0.0904846
-0.0906372
-0.0915527
-0.0917053
-0.0921631
-0.0924683
-0.0927734
-0.0933838
-0.0935364
-0.0935364
-0.0926208
-0.0921631
-0.0920105
-0.0912476
-0.0907898
-0.0906372
-0.0900269
-0.0901794
-0.0901794
-0.090332
-0.0909424
-0.0917053
-0.0921631
-0.0923157
-0.0927734
-0.093689
-0.0935364
-0.0932312
-0.0932312
-0.0926208
-0.0915527
-0.0904846
-0.0891113
-0.0881958
-0.0869751
-0.0862122
-0.0852966
-0.0845337
-0.0840759
-0.083313
-0.0830078
-0.0828552
-0.0822449
-0.0813293
-0.0798035
-0.0788879
-0.0773621
-0.075531
-0.0741577
-0.0721741
-0.0698853
-0.067749
-0.0646973
-0.0611877
-0.0569153
-0.0514221
-0.0453186
-0.038147
-0.0294495
-0.0196838
-0.00762939
0.0062561
0.0230408
0.0431824
0.0686646
0.0985718
0.133972
0.173798
0.218811
0.267639
0.318451
0.371857
0.426331
0.481873
0.537872
0.593414
0.647888
0.698853
0.745697
0.786743
0.820618
0.845795
0.861206
0.866394
0.860138
0.843201
0.814667
0.775757
0.726929
0.668793
0.602417
0.52887
0.448761
0.364532
0.276947
0.188599
0.0997925
0.0132751
-0.0694275
-0.147247
-0.217438
-0.280457
-0.334625
-0.379181
-0.413666
-0.437927
-0.453033
-0.458374
-0.455017
-0.443573
-0.425262
-0.401306
-0.37262
-0.340881
-0.306244
-0.271149
-0.235901
-0.202332
-0.170746
-0.142212
-0.116425
-0.0950623
-0.0767517
-0.0624084
-0.0514221
-0.0442505
-0.0398254
-0.038147
-0.0389099
-0.0410461
-0.0444031
-0.0485229
-0.0537109
-0.0593567
-0.0643921
-0.0689697
-0.0738525
-0.0776672
-0.0814819
-0.0842285
-0.0868225
-0.0881958
-0.0892639
-0.0895691
-0.0894165
-0.0883484
-0.0868225
-0.0852966
-0.0830078
-0.0801086
-0.0778198
-0.0743103
-0.0714111
-0.0683594
-0.0653076
-0.062561
-0.0602722
-0.0584412
-0.0567627
-0.055542
-0.0547791
-0.0540161
-0.0535583
-0.052948
-0.0526428
-0.0524902
-0.0514221
-0.0506592
-0.0497437
-0.0486755
-0.0468445
-0.045166
-0.0431824
-0.0411987
-0.0390625
-0.037384
-0.0358582
-0.0335693
-0.032196
-0.0311279
-0.030365
-0.0288391
-0.0282288
-0.0268555
-0.0260925
-0.0250244
-0.0236511
-0.022583
-0.0205994
-0.0189209
-0.0170898
-0.0151062
-0.01297
-0.0114441
-0.00961304
-0.00762939
-0.0062561
-0.00518799
-0.0038147
-0.0038147
-0.00320435
-0.00259399
-0.00213623
-0.00228882
-0.00137329
-0.00106812
0.000152588
0.0012207
0.00274658
0.00442505
0.00671387
0.0088501
0.0112915
0.0138855
0.0163269
0.0186157
0.0216675
0.0236511
0.025177
0.0271606
0.0283813
0.0294495
0.0306702
0.0318909
0.0331116
0.0338745
0.0349426
0.0360107
0.0376892
0.0393677
0.0404358
0.0424194
0.0437927
0.0463867
0.0483704
0.0497437
0.0520325
0.0534058
0.0544739
0.0553894
0.0566101
0.057373
0.0575256
0.0585938
0.0595093
0.06073
0.0621033
0.0636292
0.0653076
0.0672913
0.0700378
0.0727844
0.0753784
0.0782776
0.0810242
0.0834656
0.085907
0.0881958
0.0904846
0.0920105
0.0935364
0.0949097
0.0961304
0.0973511
0.0984192
0.0999451
0.101471
0.102692
0.10437
0.106354
0.108185
0.110016
0.112305
0.113678
0.115356
0.116882
0.11795
0.118866
0.119934
0.120239
0.12085
0.120239
0.119934
0.119781
0.119476
0.118866
0.118713
0.118103
0.118408
0.118408
0.118408
0.118713
0.118561
0.118713
0.118256
0.118103
0.118103
0.117035
0.116119
0.114594
0.113068
0.111237
0.109558
0.107422
0.105286
0.103455
0.101471
0.0993347
0.0978088
0.096283
0.0949097
0.0932312
0.0918579
0.0906372
0.0888062
0.0866699
0.0846863
0.0820923
0.0791931
0.0761414
0.0721741
0.0683594
0.0642395
0.0598145
0.0552368
0.0512695
0.0465393
0.0424194
0.0387573
0.0349426
0.0314331
0.0274658
0.0238037
0.0205994
0.0167847
0.0128174
0.00930786
0.00549316
0.0012207
-0.00274658
-0.00762939
-0.012207
-0.0163269
-0.0209045
-0.0250244
-0.0289917
-0.0331116
-0.0358582
-0.0389099
-0.0419617
-0.0444031
-0.0466919
-0.0489807
-0.0505066
-0.0521851
-0.0543213
-0.0558472
-0.0579834
-0.0598145
-0.0619507
-0.0645447
-0.0671387
-0.0691223
-0.0714111
-0.0737
-0.0756836
-0.0773621
-0.0790405
-0.0801086
-0.0808716
-0.0814819
-0.0820923
-0.0823975
-0.0823975
-0.0830078
-0.0834656
-0.0834656
-0.0845337
-0.085144
-0.0862122
-0.0875854
-0.0888062
-0.0900269
-0.0914001
-0.0927734
-0.0938416
-0.0941467
-0.0950623
-0.0947571
-0.0949097
-0.0946045
-0.0939941
-0.0927734
-0.0920105
-0.0907898
-0.0898743
-0.0894165
-0.0888062
-0.0886536
-0.0883484
-0.0886536
-0.0888062
-0.0883484
-0.0886536
-0.0888062
-0.088501
-0.088501
-0.0886536
-0.087738
-0.0866699
-0.0857544
-0.0846863
-0.0839233
-0.0823975
-0.0816345
-0.0804138
-0.0794983
-0.0788879
-0.0784302
-0.0782776
-0.0785828
-0.0785828
-0.0788879
-0.0794983
-0.0796509
-0.0794983
-0.0794983
-0.0793457
-0.0785828
-0.0778198
-0.0769043
-0.075531
-0.0744629
-0.0730896
-0.0712585
-0.0700378
-0.0688171
-0.0672913
-0.0660706
-0.0654602
-0.0646973
-0.0640869
-0.0636292
-0.0631714
-0.062561
-0.0613403
-0.0604248
-0.0590515
-0.0578308
-0.0564575
-0.0543213
-0.0523376
-0.0498962
-0.0482178
-0.0460815
-0.0442505
-0.0427246
-0.0413513
-0.0405884
-0.0396729
-0.0390625
-0.0389099
-0.0386047
-0.0382996
-0.0384521
-0.038147
-0.038147
-0.038147
-0.0370789
-0.0366211
-0.0358582
-0.0344849
-0.0334167
-0.032196
-0.0311279
-0.030365
-0.0294495
-0.0288391
-0.0289917
-0.0288391
-0.0291443
-0.0299072
-0.0302124
-0.0306702
-0.0311279
-0.0320435
-0.0323486
-0.0326538
-0.0325012
-0.0320435
-0.0315857
-0.0311279
-0.0305176
-0.0299072
-0.0292969
-0.0289917
-0.0283813
-0.0282288
-0.0279236
-0.0285339
-0.0286865
-0.0296021
-0.0300598
-0.030365
-0.0308228
-0.0312805
-0.0317383
-0.0315857
-0.0314331
-0.0311279
-0.0306702
-0.0297546
-0.0289917
-0.0280762
-0.0271606
-0.0263977
-0.0253296
-0.025177
-0.025177
-0.025177
-0.0253296
-0.0259399
-0.0263977
-0.0274658
-0.0280762
-0.0289917
-0.0294495
-0.0297546
-0.0305176
-0.0305176
-0.0308228
-0.0308228
-0.0306702
-0.0306702
-0.0312805
-0.0314331
-0.032196
-0.0328064
-0.0343323
-0.0352478
-0.0372314
-0.0386047
-0.0402832
-0.0418091
-0.0434875
-0.0450134
-0.045929
-0.0471497
-0.0473022
-0.0474548
-0.0471497
-0.0469971
-0.0463867
-0.0457764
-0.0456238
-0.0450134
-0.0442505
-0.0439453
-0.0437927
-0.0437927
-0.0439453
-0.0439453
-0.0444031
-0.0447083
-0.0445557
-0.0440979
-0.043335
-0.0430298
-0.0413513
-0.0401306
-0.0379944
-0.0358582
-0.0335693
-0.0312805
-0.027771
-0.0250244
-0.0222778
-0.0189209
-0.0166321
-0.0138855
-0.0119019
-0.00991821
-0.00808716
-0.00564575
-0.00411987
-0.00228882
-0.000457764
0.000762939
0.00259399
0.00427246
0.00610352
0.00732422
0.00915527
0.0106812
0.012207
0.0134277
0.0143433
0.0161743
0.0175476
0.0184631
0.0198364
0.0209045
0.022583
0.0242615
0.0257874
0.027771
0.0302124
0.0326538
0.0363159
0.0395203
0.0434875
0.0479126
0.0523376
0.0564575
0.0596619
0.0634766
0.0665283
0.0688171
0.0704956
0.0714111
0.0720215
0.0718689
0.071106
0.0701904
0.0689697
0.067749
0.065918
0.0643921
0.0628662
0.0614929
0.059967
0.0582886
0.0563049
0.0538635
0.0512695
0.0483704
0.0453186
0.0419617
0.0384521
0.0341797
0.0297546
0.0250244
0.0195312
0.0140381
0.00823975
0.00289917
-0.00305176
-0.00854492
-0.0144958
-0.0195312
-0.0244141
-0.0289917
-0.0335693
-0.0376892
-0.0419617
-0.0456238
-0.0494385
-0.0532532
-0.0567627
-0.0604248
-0.0640869
-0.0674438
-0.0706482
-0.0730896
-0.0759888
-0.0782776
-0.0798035
-0.0816345
-0.0823975
-0.0830078
-0.083313
-0.0836182
-0.0836182
-0.0831604
-0.0830078
-0.0828552
-0.0823975
-0.0823975
-0.08255
-0.0834656
-0.0834656
-0.0837708
-0.0846863
-0.085144
-0.0854492
-0.0854492
-0.0854492
-0.0854492
-0.0854492
-0.0848389
-0.0840759
-0.0830078
-0.0823975
-0.0813293
-0.0802612
-0.0794983
-0.0790405
-0.0779724
-0.0779724
-0.078125
-0.0782776
-0.0785828
-0.0788879
-0.0788879
-0.0791931
-0.0788879
-0.0788879
-0.0784302
-0.0776672
-0.0761414
-0.0747681
-0.0732422
-0.0714111
-0.0691223
-0.0669861
-0.0646973
-0.0619507
-0.0590515
-0.0567627
-0.0549316
-0.0532532
-0.0517273
-0.0508118
-0.0495911
-0.0482178
-0.0463867
-0.0437927
-0.039978
-0.0349426
-0.0288391
-0.0209045
-0.0119019
-0.00106812
0.0117493
0.0267029
0.0440979
0.065155
0.0904846
0.120392
0.154572
0.193634
0.236664
0.282898
0.330658
0.381622
0.433197
0.485535
0.538635
0.591736
0.643768
0.693665
0.739899
0.78064
0.814667
0.840607
0.857239
0.863953
0.85968
0.843811
0.817261
0.780334
0.73288
0.676727
0.611725
0.539856
0.461578
0.378876
0.293427
0.206757
0.120392
0.0361633
-0.0448608
-0.120544
-0.189972
-0.25177
-0.305328
-0.349884
-0.384979
-0.411072
-0.428009
-0.435638
-0.435638
-0.428009
-0.413055
-0.391998
-0.366669
-0.337524
-0.305634
-0.272064
-0.237579
-0.204163
-0.171814
-0.141296
-0.113831
-0.0894165
-0.0691223
-0.0517273
-0.0386047
-0.0289917
-0.0228882
-0.019989
-0.0196838
-0.0216675
-0.025177
-0.0300598
-0.0354004
-0.0415039
-0.0474548
-0.052948
-0.0579834
-0.0622559
-0.0656128
-0.0679016
-0.0695801
-0.0708008
-0.071106
-0.0714111
-0.0708008
-0.0700378
-0.0691223
-0.0682068
-0.0674438
-0.0662231
-0.0648499
-0.063324
-0.0617981
-0.0605774
-0.0590515
-0.0572205
-0.0553894
-0.0531006
-0.0509644
-0.0488281
-0.0468445
-0.0447083
-0.043335
-0.0411987
-0.039978
-0.0390625
-0.038147
-0.0379944
-0.037384
-0.037384
-0.037384
-0.0367737
-0.0363159
-0.0360107
-0.0354004
-0.03479
-0.0338745
-0.0325012
-0.0314331
-0.0300598
-0.0288391
-0.0268555
-0.0256348
-0.0244141
-0.0236511
-0.0224304
-0.0216675
-0.0213623
-0.0210571
-0.0209045
-0.0209045
-0.0201416
-0.0195312
-0.0187683
-0.0178528
-0.0161743
-0.0149536
-0.01297
-0.0111389
-0.00839233
-0.00640869
-0.00427246
-0.00259399
-0.000610352
0.0012207
0.00289917
0.00457764
0.00564575
0.00656128
0.00762939
0.00869751
0.00961304
0.0111389
0.012207
0.0137329
0.0157166
0.0178528
0.019989
0.0228882
0.0250244
0.0274658
0.0299072
0.0318909
0.0343323
0.0358582
0.0370789
0.038147
0.0392151
0.0396729
0.0401306
0.0405884
0.0411987
0.0416565
0.0422668
0.0427246
0.0442505
0.045166
0.0465393
0.0482178
0.0500488
0.0521851
0.0544739
0.0566101
0.058136
0.0598145
0.0619507
0.0636292
0.065155
0.0662231
0.0675964
0.0694275
0.0712585
0.0724792
0.0744629
0.0765991
0.0787354
0.0811768
0.0842285
0.0869751
0.0900269
0.092926
0.0956726
0.0985718
0.101166
0.103302
0.105438
0.106659
0.10788
0.108643
0.108948
0.109558
0.110626
0.110931
0.111237
0.112305
0.11261
0.113525
0.114594
0.115356
0.116425
0.11734
0.118256
0.118256
0.118713
0.119019
0.118713
0.118408
0.11795
0.116882
0.115967
0.115051
0.114288
0.112915
0.112762
0.111694
0.111237
0.110931
0.111084
0.111237
0.111389
0.111237
0.111084
0.110626
0.109863
0.109253
0.107727
0.106201
0.104218
0.101929
0.10025
0.0979614
0.0949097
0.092926
0.0900269
0.0878906
0.085144
0.083313
0.0813293
0.0790405
0.0773621
0.0750732
0.0726318
0.0704956
0.067749
0.0646973
0.0613403
0.0578308
0.0538635
0.0492859
0.0450134
0.0404358
0.0363159
0.0318909
0.0271606
0.022583
0.0187683
0.0146484
0.0111389
0.00762939
0.00350952
0.000457764
-0.00274658
-0.00595093
-0.00976562
-0.0128174
-0.0170898
-0.0209045
-0.0247192
-0.0289917
-0.0334167
-0.037384
-0.0408936
-0.0445557
-0.0480652
-0.0512695
-0.0540161
-0.0569153
-0.0588989
-0.0608826
-0.0622559
-0.0639343
-0.0656128
-0.0671387
-0.068512
-0.0698853
-0.0715637
-0.0733948
-0.0752258
-0.0775146
-0.0791931
-0.0811768
-0.0823975
-0.0839233
-0.085144
-0.0860596
-0.0868225
-0.0874329
-0.087738
-0.0872803
-0.0868225
-0.0866699
-0.0860596
-0.0854492
-0.0846863
-0.0842285
-0.0842285
-0.0839233
-0.0843811
-0.0846863
-0.0848389
-0.0848389
-0.0848389
-0.0842285
-0.0840759
-0.0836182
-0.0822449
-0.0811768
-0.0796509
-0.0778198
-0.0761414
-0.0743103
-0.0726318
-0.0704956
-0.0692749
-0.0672913
-0.0665283
-0.0656128
-0.065155
-0.0648499
-0.0645447
-0.0640869
-0.0634766
-0.0627136
-0.0621033
-0.0616455
-0.059967
-0.0588989
-0.0570679
-0.0550842
-0.0541687
-0.0518799
-0.0505066
-0.0486755
-0.0476074
-0.0468445
-0.0462341
-0.0460815
-0.045929
-0.0462341
-0.0463867
-0.0473022
-0.0474548
-0.0483704
-0.0485229
-0.0489807
-0.0488281
-0.0485229
-0.0474548
-0.0463867
-0.0457764
-0.0442505
-0.0430298
-0.0415039
-0.0398254
-0.0384521
-0.0369263
-0.0352478
-0.0340271
-0.0328064
-0.0314331
-0.030365
-0.0286865
-0.0270081
-0.0254822
-0.0238037
-0.0215149
-0.0195312
-0.0169373
-0.0149536
-0.012207
-0.0105286
-0.00854492
-0.00717163
-0.00564575
-0.00427246
-0.00411987
-0.00350952
-0.00366211
-0.00427246
-0.0050354
-0.00549316
-0.00579834
-0.00640869
-0.00686646
-0.00732422
-0.00701904
-0.00656128
-0.00595093
-0.00534058
-0.00457764
-0.0038147
-0.00289917
-0.00167847
-0.000915527
-0.000610352
-0.000305176
-0.000457764
-0.0012207
-0.00183105
-0.00244141
-0.00350952
-0.00427246
-0.00549316
-0.00640869
-0.00686646
-0.00778198
-0.00808716
-0.0088501
-0.00900269
-0.00900269
-0.00900269
-0.00915527
-0.00915527
-0.00915527
-0.0088501
-0.00915527
-0.0088501
-0.00930786
-0.0100708
-0.0100708
-0.010376
-0.010376
-0.0102234
-0.0100708
-0.00961304
-0.00854492
-0.00778198
-0.00656128
-0.00579834
-0.00457764
-0.00366211
-0.00305176
-0.00259399
-0.00289917
-0.00320435
-0.0038147
-0.00564575
-0.00762939
-0.00930786
-0.0117493
-0.0138855
-0.0163269
-0.0186157
-0.0212097
-0.0228882
-0.0244141
-0.0259399
-0.0271606
-0.0276184
-0.0285339
-0.0288391
-0.0286865
-0.0288391
-0.0292969
-0.0296021
-0.0292969
-0.0296021
-0.0300598
-0.0297546
-0.0306702
-0.0302124
-0.0300598
-0.0294495
-0.0288391
-0.0280762
-0.0265503
-0.0247192
-0.022583
-0.0201416
-0.0180054
-0.0152588
-0.012207
-0.00961304
-0.00717163
-0.00473022
-0.00228882
-0.000457764
0.0012207
0.00228882
0.00366211
0.00473022
0.00549316
0.00595093
0.00656128
0.00762939
0.00854492
0.0100708
0.012207
0.0138855
0.0166321
0.0190735
0.0221252
0.0247192
0.0274658
0.0300598
0.0332642
0.0354004
0.0375366
0.0396729
0.0422668
0.0445557
0.0476074
0.0502014
0.0531006
0.0563049
0.0588989
0.0619507
0.0650024
0.0675964
0.0697327
0.0717163
0.0733948
0.0749207
0.0753784
0.0756836
0.0753784
0.0749207
0.0735474
0.0718689
0.070343
0.0683594
0.0668335
0.0645447
0.0627136
0.0605774
0.0585938
0.0564575
0.0547791
0.0523376
0.0500488
0.0474548
0.0450134
0.0416565
0.0382996
0.0344849
0.0297546
0.0244141
0.0180054
0.012207
0.00579834
-0.00106812
-0.00778198
-0.0144958
-0.0210571
-0.0271606
-0.0331116
-0.0387573
-0.0436401
-0.0483704
-0.0526428
-0.0566101
-0.059967
-0.063324
-0.0665283
-0.0692749
-0.0715637
-0.0744629
-0.0773621
-0.0791931
-0.0816345
-0.083313
-0.0852966
-0.0869751
-0.087738
-0.0886536
-0.0891113
-0.0892639
-0.0892639
-0.0888062
-0.0878906
-0.087738
-0.0872803
-0.0865173
-0.0863647
-0.0857544
-0.0856018
-0.0852966
-0.0862122
-0.085907
-0.0860596
-0.0865173
-0.0871277
-0.0869751
-0.0874329
-0.0869751
-0.0866699
-0.0860596
-0.085144
-0.0840759
-0.0830078
-0.0817871
-0.0810242
-0.0798035
-0.0791931
-0.0784302
-0.0782776
-0.0785828
-0.0793457
-0.0798035
-0.0810242
-0.0814819
-0.08255
-0.083313
-0.0839233
-0.0839233
-0.0836182
-0.0828552
-0.0813293
-0.0794983
-0.0773621
-0.0746155
-0.0717163
-0.0692749
-0.0669861
-0.0650024
-0.0631714
-0.06073
-0.0578308
-0.0550842
-0.0512695
-0.0462341
-0.0396729
-0.0315857
-0.022583
-0.0109863
0.00213623
0.0175476
0.0363159
0.0588989
0.0857544
0.116882
0.152893
0.194244
0.2388
0.286713
0.336761
0.388489
0.440216
0.493622
0.546265
0.599518
0.651703
0.701599
0.748291
0.789642
0.8255
0.853577
0.872955
0.883331
0.882568
0.871124
0.849609
0.817261
0.775299
0.723572
0.662537
0.594482
0.518799
0.43808
0.353241
0.266724
0.179443
0.0930786
0.00946045
-0.0701904
-0.144043
-0.210724
-0.269623
-0.319977
-0.361023
-0.393066
-0.415955
-0.429688
-0.434875
-0.431976
-0.422516
-0.406342
-0.385437
-0.360107
-0.332336
-0.301514
-0.269928
-0.238495
-0.20752
-0.177917
-0.150757
-0.12558
-0.103455
-0.0848389
-0.0697327
-0.0578308
-0.0491333
-0.0434875
-0.0410461
-0.0408936
-0.0430298
-0.0466919
-0.0518799
-0.0578308
-0.0643921
-0.0708008
-0.0770569
-0.0823975
-0.087738
-0.0918579
-0.0950623
-0.0975037
-0.0987244
-0.0996399
-0.0993347
-0.098877
-0.0979614
-0.0964355
-0.0950623
-0.0935364
-0.0923157
-0.090332
-0.0898743
-0.088501
-0.087738
-0.0874329
-0.0865173
-0.0854492
-0.0848389
-0.0839233
-0.0828552
-0.0816345
-0.0801086
-0.078125
-0.0767517
-0.0749207
-0.072937
-0.0717163
-0.070343
-0.0692749
-0.0683594
-0.0679016
-0.0680542
-0.0679016
-0.0679016
-0.0680542
-0.067749
-0.0675964
-0.0674438
-0.0666809
-0.0662231
-0.0648499
-0.0631714
-0.0617981
-0.0598145
-0.0578308
-0.0558472
-0.0535583
-0.0514221
-0.0491333
-0.0474548
-0.0454712
-0.0437927
-0.0424194
-0.040741
-0.0396729
-0.0382996
-0.0369263
-0.0352478
-0.0338745
-0.032196
-0.0305176
-0.0285339
-0.0263977
-0.0250244
-0.0233459
-0.0222778
-0.020752
-0.0195312
-0.0189209
-0.0186157
-0.0178528
-0.0183105
-0.0183105
-0.0187683
-0.0187683
-0.0183105
-0.0184631
-0.0178528
-0.0170898
-0.0158691
-0.0141907
-0.0119019
-0.00946045
-0.00701904
-0.00396729
-0.000915527
0.00198364
0.00473022
0.00762939
0.0100708
0.0126648
0.0146484
0.0164795
0.018158
0.0202942
0.0212097
0.0234985
0.0250244
0.0270081
0.0292969
0.0315857
0.0343323
0.0369263
0.0390625
0.0413513
0.0439453
0.0460815
0.0485229
0.0505066
0.0520325
0.0538635
0.0549316
0.0561523
0.0572205
0.058136
0.0590515
0.059967
0.0611877
0.0622559
0.0640869
0.0656128
0.0679016
0.0698853
0.0727844
0.0753784
0.0770569
0.0796509
0.0817871
0.0842285
0.0862122
0.0872803
0.0883484
0.0895691
0.0904846
0.091095
0.0914001
0.0921631
0.0927734
0.0930786
0.093689
0.0944519
0.0952148
0.0961304
0.0968933
0.0973511
0.098114
0.0984192
0.098114
0.0979614
0.0973511
0.096283
0.0953674
0.0941467
0.0926208
0.0914001
0.0898743
0.0888062
0.0875854
0.0869751
0.085907
0.0852966
0.0852966
0.085144
0.085144
0.0852966
0.0846863
0.0842285
0.0839233
0.0830078
0.0819397
0.0804138
0.0782776
0.0761414
0.0737
0.0708008
0.0683594
0.0653076
0.0627136
0.059967
0.057373
0.0549316
0.0524902
0.0495911
0.0473022
0.0444031
0.0419617
0.0395203
0.0361633
0.0328064
0.0289917
0.0247192
0.0204468
0.0160217
0.0114441
0.00701904
0.00289917
-0.00152588
-0.00564575
-0.00976562
-0.0132751
-0.0163269
-0.0190735
-0.0219727
-0.0242615
-0.0265503
-0.0288391
-0.0312805
-0.0334167
-0.0361633
-0.0387573
-0.0419617
-0.0450134
-0.0485229
-0.0520325
-0.0556946
-0.0588989
-0.0621033
-0.0654602
-0.0686646
-0.0712585
-0.0730896
-0.0752258
-0.0769043
-0.0787354
-0.0796509
-0.0805664
-0.0822449
-0.0830078
-0.0845337
-0.085144
-0.0871277
-0.0886536
-0.0901794
-0.0914001
-0.092926
-0.0942993
-0.0952148
-0.0961304
-0.0965881
-0.0971985
-0.0971985
-0.0965881
-0.0961304
-0.0958252
-0.0950623
-0.0939941
-0.0933838
-0.092926
-0.0924683
-0.0918579
-0.0920105
-0.0921631
-0.0920105
-0.0923157
-0.0926208
-0.0926208
-0.0926208
-0.0927734
-0.0920105
-0.0914001
-0.0906372
-0.0892639
-0.0874329
-0.0860596
-0.0840759
-0.08255
-0.0810242
-0.0791931
-0.0779724
-0.0765991
-0.0756836
-0.0749207
-0.0746155
-0.0741577
-0.0737
-0.0730896
-0.072937
-0.0717163
-0.0717163
-0.0709534
-0.0698853
-0.0683594
-0.0669861
-0.0657654
-0.0648499
-0.063324
-0.062561
-0.0613403
-0.0608826
-0.0608826
-0.0602722
-0.0605774
-0.0608826
-0.0613403
-0.0619507
-0.0619507
-0.0622559
-0.0624084
-0.062561
-0.0621033
-0.0617981
-0.06073
-0.0592041
-0.0582886
-0.0566101
-0.0549316
-0.0534058
-0.0520325
-0.050354
-0.0488281
-0.0479126
-0.0463867
-0.0460815
-0.0450134
-0.0442505
-0.043335
-0.0422668
-0.0413513
-0.0404358
-0.0389099
-0.0379944
-0.0361633
-0.0346375
-0.0325012
-0.0306702
-0.0296021
-0.0280762
-0.0271606
-0.0262451
-0.0254822
-0.0254822
-0.0254822
-0.0257874
-0.0262451
-0.0273132
-0.0274658
-0.0279236
-0.0283813
-0.0286865
-0.0291443
-0.0289917
-0.0288391
-0.0288391
-0.0288391
-0.0288391
-0.0286865
-0.0289917
-0.0289917
-0.0297546
-0.0305176
-0.0309753
-0.032196
-0.0334167
-0.03479
-0.0358582
-0.0372314
-0.037384
-0.038147
-0.0384521
-0.0384521
-0.0378418
-0.0370789
-0.0358582
-0.0346375
-0.032959
-0.0315857
-0.0300598
-0.0286865
-0.0274658
-0.0268555
-0.0262451
-0.0259399
-0.0259399
-0.0257874
-0.0262451
-0.0263977
-0.0262451
-0.0263977
-0.0263977
-0.0267029
-0.0260925
-0.0259399
-0.0253296
-0.0244141
-0.0242615
-0.0238037
-0.0236511
-0.0234985
-0.0238037
-0.0236511
-0.0247192
-0.0254822
-0.0263977
-0.0274658
-0.0282288
-0.0292969
-0.0297546
-0.030365
-0.0309753
-0.0302124
-0.0292969
-0.0282288
-0.0263977
-0.0247192
-0.0222778
-0.0193787
-0.0167847
-0.0141907
-0.0109863
-0.00808716
-0.00518799
-0.00244141
-0.000305176
0.00228882
0.00473022
0.00717163
0.00946045
0.0117493
0.0141907
0.0163269
0.0183105
0.0204468
0.0224304
0.0245667
0.0257874
0.0273132
0.0286865
0.0297546
0.0311279
0.032196
0.0331116
0.0337219
0.0346375
0.0352478
0.0357056
0.0370789
0.0384521
0.0396729
0.0421143
0.0450134
0.0479126
0.0517273
0.0553894
0.0593567
0.062561
0.0662231
0.0695801
0.0724792
0.0744629
0.0767517
0.0776672
0.0782776
0.0782776
0.078125
0.0770569
0.075531
0.0747681
0.0735474
0.0721741
0.0704956
0.0689697
0.0679016
0.0668335
0.0650024
0.0636292
0.0614929
0.0590515
0.0567627
0.0532532
0.0500488
0.0463867
0.0419617
0.037384
0.0326538
0.0274658
0.0219727
0.0158691
0.010376
0.00442505
-0.00137329
-0.00686646
-0.0126648
-0.017395
-0.0228882
-0.0280762
-0.0323486
-0.0372314
-0.0418091
-0.0460815
-0.0508118
-0.0553894
-0.0595093
-0.0634766
-0.0674438
-0.0704956
-0.0738525
-0.0767517
-0.0787354
-0.0802612
-0.0817871
-0.0823975
-0.0827026
-0.0823975
-0.0820923
-0.0813293
-0.0802612
-0.0799561
-0.0793457
-0.0785828
-0.0787354
-0.0784302
-0.0785828
-0.0787354
-0.0785828
-0.0790405
-0.0790405
-0.0791931
-0.0794983
-0.0790405
-0.0785828
-0.0778198
-0.0769043
-0.0756836
-0.0743103
-0.0732422
-0.0718689
-0.0708008
-0.0698853
-0.0688171
-0.068512
-0.0683594
-0.0683594
-0.0680542
-0.0688171
-0.0686646
-0.0691223
-0.0692749
-0.0692749
-0.0692749
-0.0691223
-0.0683594
-0.0675964
-0.0666809
-0.0656128
-0.0645447
-0.0630188
-0.0614929
-0.0596619
-0.0576782
-0.0561523
-0.0549316
-0.0541687
-0.0534058
-0.0531006
-0.0527954
-0.0521851
-0.0514221
-0.0500488
-0.0476074
-0.0439453
-0.0387573
-0.0325012
-0.0242615
-0.0144958
-0.00305176
0.0109863
0.0276184
0.0469971
0.0714111
0.100555
0.133972
0.172424
0.215607
0.262909
0.313263
0.365753
0.420074
0.475616
0.531616
0.588531
0.645142
0.699921
0.751648
0.798798
0.839691
0.872955
0.897675
0.911713
0.914764
0.906372
0.886383
0.855103
0.812988
0.760345
0.697937
0.628052
0.550232
0.466919
0.379486
0.289764
0.198975
0.109711
0.0231934
-0.0595093
-0.136414
-0.206146
-0.267944
-0.321045
-0.364685
-0.398712
-0.423737
-0.438995
-0.445557
-0.443573
-0.433807
-0.417633
-0.395813
-0.369263
-0.339508
-0.306549
-0.273132
-0.239563
-0.206299
-0.175171
-0.146484
-0.120544
-0.0987244
-0.0799561
-0.0650024
-0.0541687
-0.0471497
-0.0427246
-0.0418091
-0.0427246
-0.0457764
-0.050354
-0.055542
-0.0613403
-0.0675964
-0.072937
-0.0776672
-0.0820923
-0.0854492
-0.0874329
-0.0892639
-0.0897217
-0.0897217
-0.0891113
-0.0880432
-0.0866699
-0.0849915
-0.0834656
-0.0813293
-0.0796509
-0.0775146
-0.0750732
-0.0735474
-0.0712585
-0.0689697
-0.0665283
-0.0640869
-0.0614929
-0.0584412
-0.0556946
-0.052948
-0.0508118
-0.0483704
-0.0460815
-0.0437927
-0.0422668
-0.0408936
-0.0398254
-0.0393677
-0.0386047
-0.0379944
-0.0370789
-0.0361633
-0.0360107
-0.03479
-0.0334167
-0.032196
-0.0309753
-0.0291443
-0.027771
-0.0260925
-0.0248718
-0.0231934
-0.0218201
-0.0209045
-0.0204468
-0.0196838
-0.0193787
-0.0192261
-0.0195312
-0.0193787
-0.0192261
-0.0192261
-0.0187683
-0.0186157
-0.0178528
-0.0166321
-0.0157166
-0.0144958
-0.0131226
-0.0119019
-0.0111389
-0.00976562
-0.0088501
-0.00839233
-0.00778198
-0.00793457
-0.00762939
-0.00778198
-0.00762939
-0.00778198
-0.00793457
-0.00747681
-0.00701904
-0.00640869
-0.00534058
-0.00411987
-0.00244141
-0.000305176
0.00137329
0.00396729
0.00579834
0.00839233
0.0108337
0.0126648
0.0144958
0.0157166
0.017395
0.0183105
0.0195312
0.0204468
0.0210571
0.0224304
0.0231934
0.0239563
0.0253296
0.0268555
0.0286865
0.0306702
0.0325012
0.0343323
0.0361633
0.0379944
0.0393677
0.0415039
0.0424194
0.0439453
0.0445557
0.0453186
0.0456238
0.0463867
0.0466919
0.0476074
0.04776
0.0488281
0.0498962
0.0508118
0.0527954
0.0546265
0.0564575
0.0582886
0.0601196
0.0616455
0.0637817
0.065155
0.0668335
0.0682068
0.0688171
0.0700378
0.0709534
0.0715637
0.0726318
0.0737
0.0749207
0.0761414
0.0779724
0.0796509
0.0819397
0.0837708
0.0860596
0.0875854
0.0897217
0.0914001
0.0923157
0.0938416
0.0942993
0.0947571
0.0949097
0.0944519
0.0938416
0.0932312
0.0915527
0.0904846
0.0895691
0.0889587
0.0874329
0.0868225
0.0862122
0.0854492
0.0846863
0.0840759
0.0831604
0.0820923
0.0813293
0.0799561
0.0779724
0.0759888
0.0740051
0.0714111
0.0689697
0.0660706
0.0631714
0.06073
0.0579834
0.055542
0.0532532
0.0511169
0.0492859
0.0471497
0.0453186
0.043335
0.0415039
0.0398254
0.0378418
0.0352478
0.032959
0.0297546
0.0265503
0.0227356
0.0190735
0.0157166
0.012207
0.00854492
0.00488281
0.00152588
-0.00213623
-0.00488281
-0.00778198
-0.0108337
-0.0137329
-0.0163269
-0.0190735
-0.0222778
-0.0248718
-0.0285339
-0.0318909
-0.035553
-0.0393677
-0.0431824
-0.0469971
-0.0512695
-0.0549316
-0.0587463
-0.0621033
-0.0654602
-0.0683594
-0.0701904
-0.0724792
-0.0744629
-0.0753784
-0.0764465
-0.0773621
-0.0785828
-0.0799561
-0.0810242
-0.0822449
-0.0836182
-0.0854492
-0.0874329
-0.0892639
-0.091095
-0.0930786
-0.0946045
-0.0961304
-0.0975037
-0.0985718
-0.0993347
-0.0999451
-0.100098
-0.0996399
-0.0994873
-0.0990295
-0.0985718
-0.0985718
-0.0979614
-0.098114
-0.0984192
-0.0985718
-0.0987244
-0.0990295
-0.0996399
-0.100098
-0.100098
-0.100403
-0.10025
-0.0997925
-0.0993347
-0.0985718
-0.098114
-0.0968933
-0.0961304
-0.0953674
-0.0946045
-0.0941467
-0.0935364
-0.0935364
-0.0935364
-0.0938416
-0.0944519
-0.0950623
-0.0953674
-0.096283
-0.096283
-0.0970459
-0.0965881
-0.096283
-0.0953674
-0.0947571
-0.0935364
-0.0918579
-0.0904846
-0.0888062
-0.0869751
-0.0854492
-0.0840759
-0.0828552
-0.0819397
-0.0811768
-0.0805664
-0.0802612
-0.0798035
-0.0793457
-0.0788879
-0.0784302
-0.078125
-0.0775146
-0.0764465
-0.075531
-0.0746155
-0.0733948
-0.0723267
-0.0715637
-0.0704956
-0.0695801
-0.0686646
-0.068512
-0.0680542
-0.0679016
-0.0679016
-0.0682068
-0.0680542
-0.0682068
-0.0680542
-0.067749
-0.0672913
-0.0660706
-0.0648499
-0.0636292
-0.0621033
-0.0596619
-0.058136
-0.0556946
-0.0540161
-0.0521851
-0.0508118
-0.0492859
-0.0480652
-0.0474548
-0.0466919
-0.0468445
-0.0462341
-0.0460815
-0.0457764
-0.045166
-0.0450134
-0.0440979
-0.0439453
-0.042572
-0.0418091
-0.0408936
-0.0398254
-0.0387573
-0.0382996
-0.0376892
-0.0369263
-0.0364685
-0.0363159
-0.0367737
-0.0372314
-0.0378418
-0.038147
-0.0384521
-0.0386047
-0.0389099
-0.0387573
-0.0384521
-0.0375366
-0.0369263
-0.0357056
-0.0340271
-0.032959
-0.0318909
-0.0305176
-0.0292969
-0.0283813
-0.0273132
-0.0267029
-0.0265503
-0.0265503
-0.0267029
-0.0271606
-0.0268555
-0.0268555
-0.0271606
-0.0271606
-0.0271606
-0.0267029
-0.0256348
-0.0250244
-0.0244141
-0.0238037
-0.0231934
-0.0231934
-0.022583
-0.0231934
-0.0233459
-0.0244141
-0.0254822
-0.0263977
-0.0279236
-0.0296021
-0.0309753
-0.032196
-0.0335693
-0.0341797
-0.0354004
-0.035553
-0.035553
-0.0350952
-0.0346375
-0.0340271
-0.0335693
-0.0325012
-0.0317383
-0.0305176
-0.0297546
-0.0289917
-0.0280762
-0.0271606
-0.0263977
-0.0254822
-0.0242615
-0.0230408
-0.0215149
-0.0195312
-0.0177002
-0.0154114
-0.0126648
-0.00991821
-0.00717163
-0.00411987
-0.00137329
0.0012207
0.00335693
0.0050354
0.00686646
0.00762939
0.00839233
0.00854492
0.0088501
0.00900269
0.00946045
0.0102234
0.0109863
0.012207
0.0135803
0.0157166
0.0180054
0.0205994
0.0234985
0.0263977
0.0288391
0.0325012
0.0354004
0.0387573
0.0415039
0.0437927
0.0468445
0.0488281
0.0506592
0.0524902
0.0546265
0.0559998
0.057373
0.0582886
0.0595093
0.06073
0.0617981
0.0624084
0.0630188
0.0639343
0.0642395
0.0640869
0.0637817
0.0628662
0.0617981
0.0604248
0.0582886
0.055542
0.052948
0.0498962
0.0466919
0.0431824
0.0395203
0.0357056
0.0318909
0.0283813
0.0247192
0.020752
0.0166321
0.0125122
0.00762939
0.00228882
-0.00228882
-0.00808716
-0.0138855
-0.0201416
-0.0263977
-0.032959
-0.0387573
-0.0448608
-0.0509644
-0.0561523
-0.0614929
-0.065918
-0.0701904
-0.0738525
-0.0764465
-0.0787354
-0.0804138
-0.0820923
-0.083313
-0.0839233
-0.0848389
-0.0852966
-0.0862122
-0.0866699
-0.0872803
-0.0880432
-0.0888062
-0.0898743
-0.0900269
-0.090332
-0.0912476
-0.0915527
-0.0914001
-0.0915527
-0.0909424
-0.0904846
-0.0901794
-0.0894165
-0.0889587
-0.088501
-0.087738
-0.0871277
-0.0872803
-0.0871277
-0.0878906
-0.0880432
-0.088501
-0.0895691
-0.0895691
-0.0897217
-0.0900269
-0.0897217
-0.0895691
-0.0888062
-0.0881958
-0.0871277
-0.0862122
-0.0846863
-0.0836182
-0.08255
-0.0813293
-0.0804138
-0.0796509
-0.0791931
-0.0790405
-0.0782776
-0.078125
-0.0775146
-0.0769043
-0.075531
-0.0738525
-0.0718689
-0.0698853
-0.0672913
-0.065155
-0.0627136
-0.0605774
-0.0576782
-0.0549316
-0.0517273
-0.0471497
-0.0424194
-0.0364685
-0.0302124
-0.0224304
-0.0131226
-0.00167847
0.0111389
0.0271606
0.0465393
0.0701904
0.0993347
0.133514
0.173035
0.21759
0.266113
0.318298
0.372467
0.428009
0.484772
0.542145
0.599518
0.655518
0.709381
0.758972
0.804443
0.842133
0.872192
0.893402
0.904083
0.903931
0.892181
0.869751
0.836487
0.792236
0.738525
0.675507
0.604401
0.526733
0.44281
0.35553
0.265808
0.175018
0.0852966
-0.000762939
-0.0828552
-0.158997
-0.227051
-0.286865
-0.336761
-0.37735
-0.40741
-0.427551
-0.43808
-0.438843
-0.431519
-0.416565
-0.395355
-0.369263
-0.338745
-0.305634
-0.270691
-0.235901
-0.201721
-0.169067
-0.138855
-0.111542
-0.0878906
-0.0675964
-0.0511169
-0.0386047
-0.0292969
-0.0231934
-0.0201416
-0.0192261
-0.0212097
-0.0241089
-0.0285339
-0.0338745
-0.039978
-0.0460815
-0.0524902
-0.0585938
-0.0643921
-0.0697327
-0.0744629
-0.0784302
-0.0813293
-0.0834656
-0.0849915
-0.0857544
-0.0857544
-0.0845337
-0.0831604
-0.0813293
-0.0788879
-0.0762939
-0.0737
-0.071106
-0.0680542
-0.065918
-0.0634766
-0.0621033
-0.0602722
-0.0592041
-0.0585938
-0.0584412
-0.0576782
-0.057373
-0.0564575
-0.0561523
-0.0558472
-0.0541687
-0.0534058
-0.0517273
-0.0502014
-0.0479126
-0.0460815
-0.0444031
-0.0424194
-0.0404358
-0.0386047
-0.0375366
-0.0360107
-0.0352478
-0.0343323
-0.0340271
-0.0337219
-0.0331116
-0.0326538
-0.0318909
-0.0314331
-0.0302124
-0.0294495
-0.0280762
-0.0267029
-0.0256348
-0.0241089
-0.022583
-0.0210571
-0.019989
-0.0186157
-0.0180054
-0.0172424
-0.0166321
-0.0161743
-0.0158691
-0.0157166
-0.0151062
-0.0140381
-0.0134277
-0.0128174
-0.0119019
-0.0102234
-0.00823975
-0.00671387
-0.00473022
-0.00274658
-0.000610352
0.00106812
0.00274658
0.00427246
0.00564575
0.00701904
0.00778198
0.00823975
0.00869751
0.0088501
0.00961304
0.010376
0.0108337
0.0120544
0.01297
0.0141907
0.0158691
0.0178528
0.0196838
0.0216675
0.0239563
0.0256348
0.0273132
0.0291443
0.0306702
0.0317383
0.0332642
0.0338745
0.0346375
0.0360107
0.0370789
0.0384521
0.0392151
0.0408936
0.0424194
0.0444031
0.0471497
0.0492859
0.0520325
0.0546265
0.057373
0.0602722
0.062561
0.065155
0.0669861
0.0689697
0.0704956
0.0714111
0.0727844
0.0740051
0.0746155
0.0758362
0.0767517
0.0776672
0.0793457
0.080719
0.0822449
0.0845337
0.0866699
0.0886536
0.0901794
0.0920105
0.0938416
0.0952148
0.0961304
0.0964355
0.0971985
0.0968933
0.0970459
0.0970459
0.096283
0.096283
0.09552
0.0953674
0.0958252
0.0958252
0.0965881
0.0971985
0.0979614
0.0982666
0.098877
0.0993347
0.0996399
0.0996399
0.0994873
0.0990295
0.0978088
0.0968933
0.0956726
0.0944519
0.0930786
0.0914001
0.0897217
0.0883484
0.0868225
0.0854492
0.0843811
0.08255
0.0814819
0.0801086
0.078125
0.0759888
0.0741577
0.0718689
0.0689697
0.0654602
0.0622559
0.0578308
0.0540161
0.0500488
0.0462341
0.0422668
0.0387573
0.0350952
0.0317383
0.0280762
0.0248718
0.0215149
0.0187683
0.0157166
0.0125122
0.00946045
0.00640869
0.00289917
-0.000762939
-0.00427246
-0.00854492
-0.0131226
-0.0175476
-0.0216675
-0.0263977
-0.0305176
-0.0346375
-0.038147
-0.0421143
-0.045166
-0.0480652
-0.0506592
-0.0531006
-0.0552368
-0.0575256
-0.0595093
-0.0613403
-0.0637817
-0.0657654
-0.0680542
-0.0704956
-0.0732422
-0.0756836
-0.078125
-0.080719
-0.0820923
-0.0848389
-0.0862122
-0.0880432
-0.088501
-0.0894165
-0.0897217
-0.0895691
-0.0901794
-0.0897217
-0.0897217
-0.0895691
-0.0895691
-0.0892639
-0.0894165
-0.0900269
-0.0901794
-0.0901794
-0.0906372
-0.0912476
-0.0907898
-0.091095
-0.0909424
-0.090332
-0.0895691
-0.088501
-0.0871277
-0.0857544
-0.0845337
-0.0834656
-0.0820923
-0.0811768
-0.0801086
-0.0796509
-0.0793457
-0.0794983
-0.0793457
-0.0794983
-0.0794983
-0.0799561
-0.0796509
-0.0794983
-0.0799561
-0.0796509
-0.0791931
-0.0779724
-0.0769043
-0.0756836
-0.0747681
-0.0733948
-0.0723267
-0.0712585
-0.0701904
-0.0695801
-0.0692749
-0.0691223
-0.0692749
-0.0697327
-0.0697327
-0.0700378
-0.0700378
-0.0700378
-0.0701904
-0.0697327
-0.0694275
-0.0680542
-0.0672913
-0.0662231
-0.0653076
-0.0636292
-0.0627136
-0.0614929
-0.0604248
-0.0598145
-0.0593567
-0.0585938
-0.0587463
-0.0584412
-0.0584412
-0.058136
-0.0578308
-0.057373
-0.0570679
-0.0556946
-0.0546265
-0.0531006
-0.0511169
-0.0489807
-0.0474548
-0.0453186
-0.0434875
-0.0416565
-0.039978
-0.0387573
-0.0379944
-0.0370789
-0.0366211
-0.0363159
-0.035553
-0.0352478
-0.0349426
-0.0344849
-0.0334167
-0.0331116
-0.0318909
-0.0311279
-0.0291443
-0.0280762
-0.0260925
-0.0250244
-0.0236511
-0.0224304
-0.0216675
-0.0212097
-0.0209045
-0.0205994
-0.0210571
-0.0216675
-0.0216675
-0.0222778
-0.0228882
-0.0230408
-0.0234985
-0.0231934
-0.0228882
-0.0218201
-0.0210571
-0.0202942
-0.0190735
-0.0184631
-0.0170898
-0.0163269
-0.0154114
-0.0144958
-0.0143433
-0.0138855
-0.0138855
-0.0135803
-0.0134277
-0.0135803
-0.0137329
-0.0137329
-0.0135803
-0.0132751
-0.0131226
-0.0120544
-0.0115967
-0.0109863
-0.0100708
-0.00991821
-0.00915527
-0.00869751
-0.00869751
-0.00915527
-0.00930786
-0.0100708
-0.0114441
-0.012207
-0.0135803
-0.0144958
-0.015564
-0.0166321
-0.017395
-0.0180054
-0.018158
-0.018158
-0.0178528
-0.0178528
-0.0170898
-0.0170898
-0.0167847
-0.0172424
-0.0172424
-0.0177002
-0.0177002
-0.0187683
-0.0198364
-0.020752
-0.0216675
-0.0222778
-0.0222778
-0.0227356
-0.0230408
-0.0219727
-0.0212097
-0.019989
-0.0183105
-0.0163269
-0.0138855
-0.0114441
-0.00900269
-0.00656128
-0.00427246
-0.00167847
-0.000305176
0.00183105
0.00289917
0.00488281
0.00610352
0.00701904
0.00823975
0.00961304
0.010376
0.0112915
0.0123596
0.0137329
0.0141907
0.0152588
0.0166321
0.0172424
0.0187683
0.0202942
0.0209045
0.0222778
0.0234985
0.0247192
0.0257874
0.0267029
0.0280762
0.0291443
0.0309753
0.0332642
0.0352478
0.0379944
0.0411987
0.0445557
0.0485229
0.0520325
0.0553894
0.0585938
0.0614929
0.0636292
0.0656128
0.0671387
0.067749
0.0679016
0.0671387
0.0663757
0.0654602
0.0636292
0.0621033
0.0605774
0.0587463
0.0570679
0.0553894
0.0535583
0.0521851
0.0502014
0.0483704
0.0457764
0.0434875
0.0402832
0.0376892
0.0338745
0.0299072
0.025177
0.0202942
0.0146484
0.00854492
0.00244141
-0.00427246
-0.0106812
-0.0172424
-0.0236511
-0.0299072
-0.0357056
-0.0410461
-0.0466919
-0.0517273
-0.0566101
-0.0613403
-0.0654602
-0.0700378
-0.0744629
-0.0782776
-0.0822449
-0.0862122
-0.0892639
-0.0917053
-0.0949097
-0.0967407
-0.0985718
-0.0999451
-0.100403
-0.100708
-0.100555
-0.100098
-0.0997925
-0.098877
-0.0984192
-0.0971985
-0.0965881
-0.0961304
-0.0961304
-0.0958252
-0.0959778
-0.0964355
-0.0968933
-0.0976562
-0.0979614
-0.0982666
-0.098877
-0.098877
-0.0985718
-0.0984192
-0.0973511
-0.096283
-0.0950623
-0.0939941
-0.0930786
-0.0917053
-0.0904846
-0.0892639
-0.0886536
-0.0883484
-0.0881958
-0.0881958
-0.0881958
-0.0881958
-0.0886536
-0.0889587
-0.0894165
-0.0892639
-0.0891113
-0.0886536
-0.088501
-0.0872803
-0.0862122
-0.085144
-0.0831604
-0.0811768
-0.0791931
-0.0772095
-0.0753784
-0.0738525
-0.0726318
-0.0718689
-0.0709534
-0.0698853
-0.0682068
-0.0656128
-0.0627136
-0.0584412
-0.052948
-0.045929
-0.0372314
-0.0263977
-0.0144958
0.000457764
0.0177002
0.0386047
0.062561
0.0917053
0.125885
0.163879
0.207214
0.253296
0.302887
0.354309
0.40741
0.461884
0.516663
0.571747
0.626221
0.679016
0.728455
0.773315
0.811462
0.841827
0.86319
0.873566
0.874023
0.862274
0.839386
0.804749
0.759583
0.704193
0.639801
0.567627
0.487976
0.404205
0.315704
0.226135
0.135345
0.0471497
-0.0376892
-0.11795
-0.191803
-0.257568
-0.315094
-0.363007
-0.401917
-0.430603
-0.449677
-0.459747
-0.460663
-0.454102
-0.440369
-0.420227
-0.39505
-0.366058
-0.334015
-0.300446
-0.265961
-0.231934
-0.199432
-0.168915
-0.141296
-0.116882
-0.0958252
-0.0788879
-0.065918
-0.0563049
-0.0498962
-0.0476074
-0.0479126
-0.0505066
-0.0546265
-0.06073
-0.0669861
-0.0737
-0.0802612
-0.0868225
-0.0923157
-0.0968933
-0.100861
-0.103455
-0.105286
-0.106506
-0.106506
-0.105743
-0.104828
-0.102997
-0.101318
-0.0997925
-0.0975037
-0.0959778
-0.0939941
-0.0924683
-0.0906372
-0.0888062
-0.0869751
-0.085144
-0.083313
-0.0813293
-0.0790405
-0.0765991
-0.0747681
-0.0726318
-0.0708008
-0.0688171
-0.0674438
-0.0657654
-0.0650024
-0.0642395
-0.0631714
-0.0628662
-0.0630188
-0.062561
-0.0624084
-0.0622559
-0.0619507
-0.0613403
-0.0605774
-0.0592041
-0.0579834
-0.0567627
-0.0544739
-0.0532532
-0.0514221
-0.0494385
-0.0479126
-0.0463867
-0.0448608
-0.0436401
-0.0431824
-0.0424194
-0.0413513
-0.0405884
-0.039978
-0.0387573
-0.0378418
-0.0363159
-0.0349426
-0.0332642
-0.0314331
-0.0286865
-0.0268555
-0.0245667
-0.0227356
-0.0202942
-0.0183105
-0.0163269
-0.0149536
-0.0137329
-0.0128174
-0.0119019
-0.0112915
-0.0106812
-0.010376
-0.0102234
-0.00930786
-0.0088501
-0.00778198
-0.00671387
-0.00518799
-0.00335693
-0.00167847
0.000457764
0.00228882
0.00396729
0.0062561
0.00793457
0.00915527
0.0109863
0.0120544
0.01297
0.0141907
0.0154114
0.0160217
0.0169373
0.0184631
0.019989
0.0215149
0.0231934
0.0250244
0.0279236
0.0300598
0.0325012
0.0349426
0.0370789
0.0390625
0.0410461
0.0427246
0.0440979
0.0454712
0.0466919
0.0476074
0.0480652
0.0489807
0.0502014
0.0511169
0.0521851
0.0532532
0.0547791
0.0570679
0.0592041
0.0613403
0.0639343
0.0662231
0.068512
0.0709534
0.0724792
0.0746155
0.0764465
0.0778198
0.0784302
0.0794983
0.0805664
0.0808716
0.0819397
0.0823975
0.0834656
0.0839233
0.085144
0.0865173
0.0875854
0.0886536
0.0894165
0.090332
0.0907898
0.0912476
0.0914001
0.0912476
0.0907898
0.0898743
0.0888062
0.0869751
0.0856018
0.0842285
0.08255
0.0811768
0.0801086
0.0784302
0.0775146
0.0767517
0.0759888
0.0756836
0.0749207
0.0741577
0.072937
0.0717163
0.0700378
0.068512
0.0665283
0.0637817
0.0611877
0.058136
0.0549316
0.0515747
0.0483704
0.0447083
0.0411987
0.0386047
0.0358582
0.0328064
0.030365
0.0282288
0.025177
0.022583
0.0196838
0.0167847
0.0137329
0.010376
0.0062561
0.00259399
-0.00106812
-0.00549316
-0.00946045
-0.0137329
-0.0178528
-0.0216675
-0.025177
-0.0286865
-0.0312805
-0.0341797
-0.0370789
-0.0393677
-0.0416565
-0.0437927
-0.0462341
-0.0485229
-0.0511169
-0.0535583
-0.0570679
-0.0596619
-0.0631714
-0.0662231
-0.0694275
-0.0726318
-0.0758362
-0.0787354
-0.0813293
-0.0839233
-0.0860596
-0.0878906
-0.0891113
-0.0907898
-0.0918579
-0.0926208
-0.0939941
-0.0947571
-0.0959778
-0.0970459
-0.0982666
-0.0999451
-0.101776
-0.103302
-0.105133
-0.106354
-0.10788
-0.108948
-0.109558
-0.110168
-0.110626
-0.110779
-0.110321
-0.110016
-0.109406
-0.108795
-0.108795
-0.108185
-0.107727
-0.107574
-0.107727
-0.107574
-0.107727
-0.108185
-0.108643
-0.108948
-0.109253
-0.1091
-0.109253
-0.108643
-0.108337
-0.107422
-0.106049
-0.10498
-0.104218
-0.102844
-0.101929
-0.101013
-0.100098
-0.0997925
-0.0996399
-0.0999451
-0.0996399
-0.100098
-0.100403
-0.100861
-0.100403
-0.100708
-0.100861
-0.0997925
-0.0991821
-0.0982666
-0.0973511
-0.0958252
-0.0946045
-0.0933838
-0.0918579
-0.0900269
-0.0891113
-0.0883484
-0.0872803
-0.0871277
-0.0866699
-0.0865173
-0.0862122
-0.085907
-0.0857544
-0.0856018
-0.085144
-0.0846863
-0.0836182
-0.08255
-0.0802612
-0.0791931
-0.0775146
-0.0761414
-0.0744629
-0.0730896
-0.0717163
-0.0704956
-0.0701904
-0.0695801
-0.0689697
-0.068512
-0.0683594
-0.0680542
-0.0674438
-0.0669861
-0.0665283
-0.0653076
-0.0640869
-0.0628662
-0.0608826
-0.0592041
-0.0572205
-0.0558472
-0.0538635
-0.0524902
-0.0512695
-0.0498962
-0.0491333
-0.0483704
-0.04776
-0.0480652
-0.0474548
-0.0469971
-0.0469971
-0.0468445
-0.0460815
-0.045166
-0.0439453
-0.0427246
-0.0413513
-0.039978
-0.0384521
-0.0364685
-0.0349426
-0.0332642
-0.0323486
-0.0312805
-0.030365
-0.0300598
-0.0297546
-0.0296021
-0.0300598
-0.0302124
-0.0300598
-0.0300598
-0.0302124
-0.0300598
-0.0294495
-0.0291443
-0.0283813
-0.0273132
-0.0265503
-0.0257874
-0.0247192
-0.0244141
-0.0238037
-0.0234985
-0.0239563
-0.0242615
-0.0247192
-0.0254822
-0.0259399
-0.0267029
-0.0271606
-0.0276184
-0.0285339
-0.0280762
-0.0283813
-0.0282288
-0.0280762
-0.0273132
-0.0268555
-0.0267029
-0.0265503
-0.0257874
-0.0256348
-0.0263977
-0.0267029
-0.0273132
-0.0280762
-0.0292969
-0.030365
-0.0312805
-0.032196
-0.0332642
-0.0340271
-0.0343323
-0.03479
-0.03479
-0.0346375
-0.0337219
-0.0335693
-0.0334167
-0.032959
-0.032196
-0.0323486
-0.0320435
-0.0320435
-0.0323486
-0.0325012
-0.032959
-0.032959
-0.0326538
-0.032959
-0.0318909
-0.0314331
-0.0300598
-0.0286865
-0.0265503
-0.0242615
-0.0218201
-0.0192261
-0.0164795
-0.0138855
-0.0114441
-0.00900269
-0.00717163
-0.00534058
-0.00350952
-0.00183105
-0.00106812
0.0
0.000762939
0.000762939
0.00152588
0.00213623
0.00259399
0.00366211
0.00442505
0.00595093
0.00808716
0.00976562
0.0120544
0.0141907
0.0163269
0.0190735
0.0212097
0.0230408
0.0250244
0.0268555
0.0289917
0.0312805
0.0343323
0.0369263
0.0396729
0.0428772
0.0460815
0.0498962
0.0531006
0.0567627
0.0601196
0.062561
0.0648499
0.0671387
0.068512
0.0695801
0.0697327
0.0698853
0.0689697
0.0675964
0.0656128
0.0634766
0.0613403
0.0587463
0.0558472
0.0531006
0.0500488
0.0474548
0.0444031
0.0416565
0.0389099
0.0363159
0.0328064
0.0292969
0.0256348
0.0224304
0.0172424
0.0125122
0.00717163
0.00152588
-0.00457764
-0.0108337
-0.0172424
-0.0230408
-0.0296021
-0.0350952
-0.040741
-0.0457764
-0.0502014
-0.0546265
-0.0582886
-0.0619507
-0.0650024
-0.067749
-0.0704956
-0.0733948
-0.0759888
-0.0782776
-0.0805664
-0.0828552
-0.0846863
-0.0869751
-0.0889587
-0.090332
-0.0915527
-0.092926
-0.0933838
-0.0938416
-0.0939941
-0.093689
-0.0933838
-0.0930786
-0.0926208
-0.0923157
-0.0921631
-0.0921631
-0.0917053
-0.0923157
-0.0927734
-0.0935364
-0.0941467
-0.0944519
-0.0949097
-0.09552
-0.0956726
-0.09552
-0.0953674
-0.0949097
-0.0938416
-0.0927734
-0.0914001
-0.0906372
-0.0889587
-0.0881958
-0.0869751
-0.085907
-0.0854492
-0.085144
-0.0848389
-0.0852966
-0.0852966
-0.0854492
-0.0856018
-0.0857544
-0.0856018
-0.0860596
-0.085144
-0.0843811
-0.08255
-0.0808716
-0.0782776
-0.0758362
-0.0732422
-0.070343
-0.0675964
-0.0653076
-0.0630188
-0.0613403
-0.0596619
-0.0572205
-0.0549316
-0.0512695
-0.0471497
-0.0415039
-0.0343323
-0.0262451
-0.0160217
-0.0038147
0.0109863
0.0289917
0.0505066
0.0764465
0.106354
0.141907
0.181732
0.226593
0.273743
0.323944
0.376129
0.429077
0.482635
0.536804
0.591125
0.644226
0.695343
0.742035
0.784302
0.820007
0.847931
0.866852
0.875092
0.87265
0.858917
0.834351
0.79895
0.752716
0.696716
0.631866
0.558777
0.479431
0.395355
0.307922
0.218506
0.129395
0.0421143
-0.0415039
-0.119781
-0.191498
-0.254669
-0.309753
-0.355225
-0.39093
-0.416718
-0.432739
-0.440063
-0.438385
-0.429535
-0.413513
-0.392151
-0.366058
-0.336609
-0.304871
-0.271912
-0.23819
-0.205383
-0.174255
-0.145111
-0.118103
-0.0946045
-0.0749207
-0.0585938
-0.045929
-0.0370789
-0.0312805
-0.0283813
-0.0283813
-0.0306702
-0.0349426
-0.040741
-0.0476074
-0.0547791
-0.0621033
-0.0689697
-0.0753784
-0.0810242
-0.085907
-0.0898743
-0.0924683
-0.0939941
-0.0950623
-0.0950623
-0.0941467
-0.0923157
-0.0914001
-0.0891113
-0.0868225
-0.0849915
-0.0830078
-0.0816345
-0.0801086
-0.0790405
-0.078125
-0.0769043
-0.0764465
-0.0753784
-0.0746155
-0.0733948
-0.0721741
-0.0706482
-0.0692749
-0.0679016
-0.0660706
-0.0642395
-0.0631714
-0.0617981
-0.0601196
-0.0588989
-0.058136
-0.0570679
-0.0564575
-0.0558472
-0.0549316
-0.0538635
-0.0535583
-0.0526428
-0.0518799
-0.0506592
-0.0489807
-0.0471497
-0.045166
-0.0430298
-0.0408936
-0.0390625
-0.0370789
-0.0354004
-0.0340271
-0.0326538
-0.0317383
-0.0311279
-0.0311279
-0.0308228
-0.0309753
-0.0312805
-0.0312805
-0.0311279
-0.0312805
-0.0306702
-0.030365
-0.0299072
-0.0283813
-0.0273132
-0.0263977
-0.0253296
-0.0241089
-0.0227356
-0.0218201
-0.020752
-0.019989
-0.0193787
-0.0192261
-0.0186157
-0.0178528
-0.0169373
-0.0163269
-0.0158691
-0.0143433
-0.0131226
-0.0115967
-0.00946045
-0.00747681
-0.00488281
-0.00228882
0.000152588
0.00259399
0.00518799
0.00717163
0.00930786
0.0112915
0.0126648
0.0138855
0.0154114
0.0167847
0.0183105
0.0198364
0.0212097
0.0231934
0.0248718
0.0273132
0.0297546
0.032196
0.0354004
0.0386047
0.040741
0.0430298
0.045929
0.0480652
0.0505066
0.0524902
0.0541687
0.0553894
0.0569153
0.0578308
0.0595093
0.0610352
0.0624084
0.0640869
0.065918
0.0682068
0.0704956
0.0726318
0.0756836
0.0779724
0.0805664
0.0827026
0.0854492
0.0872803
0.0889587
0.0901794
0.091095
0.0918579
0.0924683
0.0930786
0.0932312
0.0932312
0.0933838
0.0933838
0.0935364
0.0939941
0.0947571
0.09552
0.0964355
0.0965881
0.0970459
0.0975037
0.098114
0.0979614
0.0978088
0.0973511
0.0959778
0.0952148
0.0941467
0.0927734
0.091095
0.0898743
0.088501
0.0871277
0.0857544
0.0849915
0.0843811
0.0834656
0.08255
0.0817871
0.0808716
0.0794983
0.078125
0.0767517
0.0746155
0.0721741
0.0692749
0.0666809
0.0627136
0.0598145
0.0558472
0.0523376
0.0488281
0.045166
0.0418091
0.0390625
0.0358582
0.0332642
0.0300598
0.0274658
0.0245667
0.0219727
0.0192261
0.0160217
0.0123596
0.00915527
0.00549316
0.00137329
-0.00213623
-0.00656128
-0.0105286
-0.0144958
-0.0183105
-0.0221252
-0.0256348
-0.0291443
-0.032196
-0.0349426
-0.0378418
-0.040741
-0.0434875
-0.0465393
-0.0488281
-0.0524902
-0.055542
-0.0592041
-0.0627136
-0.0669861
-0.0706482
-0.0746155
-0.0782776
-0.0816345
-0.085144
-0.0881958
-0.0904846
-0.0930786
-0.0944519
-0.0959778
-0.0971985
-0.098114
-0.0987244
-0.0991821
-0.0996399
-0.100098
-0.100708
-0.101776
-0.102692
-0.103149
-0.10437
-0.10498
-0.106049
-0.106659
-0.106659
-0.107117
-0.106812
-0.106201
-0.105286
-0.104218
-0.103607
-0.102234
-0.101013
-0.100098
-0.098877
-0.098114
-0.0971985
-0.0968933
-0.0964355
-0.0970459
-0.0967407
-0.0973511
-0.0973511
-0.0971985
-0.0971985
-0.0967407
-0.0970459
-0.0961304
-0.0958252
-0.0942993
-0.0935364
-0.0927734
-0.0912476
-0.0900269
-0.0892639
-0.088501
-0.0878906
-0.0875854
-0.0872803
-0.0874329
-0.0875854
-0.0880432
-0.0878906
-0.087738
-0.087738
-0.0875854
-0.0863647
-0.0854492
-0.0843811
-0.0830078
-0.0814819
-0.0801086
-0.0782776
-0.0767517
-0.0750732
-0.0737
-0.0727844
-0.0718689
-0.071106
-0.0701904
-0.0700378
-0.0700378
-0.0697327
-0.0692749
-0.0686646
-0.0682068
-0.0674438
-0.0660706
-0.0645447
-0.0631714
-0.0617981
-0.0602722
-0.0585938
-0.0570679
-0.0550842
-0.0540161
-0.0524902
-0.0517273
-0.0506592
-0.0505066
-0.0502014
-0.0494385
-0.0489807
-0.0485229
-0.0479126
-0.0469971
-0.0457764
-0.0445557
-0.0427246
-0.0411987
-0.0395203
-0.0378418
-0.0358582
-0.0343323
-0.0323486
-0.0311279
-0.0296021
-0.0289917
-0.0282288
-0.0279236
-0.0276184
-0.0268555
-0.0265503
-0.0262451
-0.0260925
-0.0256348
-0.0253296
-0.0242615
-0.0231934
-0.0216675
-0.019989
-0.0190735
-0.017395
-0.0161743
-0.0149536
-0.0138855
-0.01297
-0.0126648
-0.0125122
-0.0125122
-0.01297
-0.0134277
-0.0137329
-0.0135803
-0.0143433
-0.0144958
-0.0144958
-0.0144958
-0.0140381
-0.0135803
-0.01297
-0.0128174
-0.0115967
-0.0112915
-0.0111389
-0.010376
-0.0106812
-0.0112915
-0.0114441
-0.0126648
-0.0132751
-0.0143433
-0.0149536
-0.015564
-0.0161743
-0.0166321
-0.0169373
-0.0167847
-0.0163269
-0.0160217
-0.0151062
-0.0144958
-0.0141907
-0.0134277
-0.0126648
-0.0128174
-0.0125122
-0.0131226
-0.0131226
-0.0140381
-0.0146484
-0.0158691
-0.0164795
-0.0178528
-0.0184631
-0.0193787
-0.0195312
-0.0201416
-0.019989
-0.0198364
-0.0192261
-0.0186157
-0.0186157
-0.0180054
-0.0178528
-0.0175476
-0.018158
-0.018158
-0.0187683
-0.0198364
-0.0209045
-0.0219727
-0.0231934
-0.0242615
-0.0250244
-0.0254822
-0.0262451
-0.0265503
-0.0260925
-0.0256348
-0.0253296
-0.0248718
-0.0239563
-0.0230408
-0.0218201
-0.0212097
-0.0201416
-0.0192261
-0.0184631
-0.018158
-0.0175476
-0.0164795
-0.0154114
-0.0140381
-0.01297
-0.0111389
-0.00915527
-0.00686646
-0.00427246
-0.00167847
0.0012207
0.00411987
0.00701904
0.00991821
0.0125122
0.0152588
0.0170898
0.0183105
0.0190735
0.0201416
0.0202942
0.020752
0.0210571
0.0216675
0.0221252
0.0228882
0.0241089
0.0257874
0.0279236
0.0302124
0.0325012
0.0350952
0.0375366
0.039978
0.0424194
0.0454712
0.0480652
0.0505066
0.0531006
0.0553894
0.0579834
0.059967
0.0621033
0.0640869
0.0654602
0.0674438
0.0686646
0.0698853
0.0714111
0.0726318
0.0738525
0.0744629
0.0750732
0.0752258
0.0749207
0.0747681
0.0738525
0.0721741
0.0701904
0.0674438
0.0648499
0.0611877
0.0572205
0.0531006
0.0492859
0.045166
0.040741
0.0372314
0.0332642
0.0288391
0.0244141
0.0196838
0.014801
0.00961304
0.0038147
-0.00152588
-0.00732422
-0.0141907
-0.020752
-0.0276184
-0.0338745
-0.040741
-0.0465393
-0.0521851
-0.0578308
-0.0630188
-0.0671387
-0.0709534
-0.0735474
-0.0764465
-0.0779724
-0.0796509
-0.080719
-0.0814819
-0.0816345
-0.0820923
-0.08255
-0.0828552
-0.0831604
-0.0834656
-0.0839233
-0.0843811
-0.0843811
-0.0848389
-0.0849915
-0.085144
-0.0849915
-0.0845337
-0.0837708
-0.083313
-0.0819397
-0.0811768
-0.0802612
-0.0794983
-0.0787354
-0.0787354
-0.078125
-0.0782776
-0.0787354
-0.0788879
-0.0793457
-0.0798035
-0.0801086
-0.0810242
-0.0810242
-0.0813293
-0.0813293
-0.0811768
-0.0805664
-0.0796509
-0.0790405
-0.0782776
-0.0776672
-0.0773621
-0.0769043
-0.0765991
-0.0765991
-0.0767517
-0.0772095
-0.0779724
-0.0784302
-0.0788879
-0.0791931
-0.0791931
-0.0785828
-0.0770569
-0.0759888
-0.0738525
-0.0721741
-0.0695801
-0.0671387
-0.0650024
-0.0619507
-0.0593567
-0.055542
-0.0509644
-0.0457764
-0.039978
-0.0331116
-0.025177
-0.0154114
-0.00442505
0.0088501
0.0248718
0.0439453
0.0674438
0.0959778
0.129089
0.167542
0.210419
0.256958
0.306396
0.358124
0.410919
0.464935
0.518799
0.572968
0.626068
0.67627
0.723114
0.765076
0.800781
0.8284
0.847626
0.856934
0.85556
0.843506
0.820923
0.787964
0.744934
0.692902
0.631561
0.562592
0.487366
0.406952
0.322876
0.236053
0.148926
0.0627136
-0.019989
-0.0987244
-0.170898
-0.235748
-0.292206
-0.339813
-0.37796
-0.405579
-0.423431
-0.431976
-0.431671
-0.423584
-0.407867
-0.386353
-0.35965
-0.329437
-0.296478
-0.262146
-0.228119
-0.194397
-0.162354
-0.132904
-0.106659
-0.08255
-0.0631714
-0.0466919
-0.0340271
-0.0253296
-0.0187683
-0.0160217
-0.0149536
-0.0161743
-0.0190735
-0.0233459
-0.0285339
-0.0341797
-0.0404358
-0.0466919
-0.0527954
-0.0585938
-0.0636292
-0.0680542
-0.0715637
-0.0746155
-0.0764465
-0.0778198
-0.0779724
-0.0775146
-0.0762939
-0.0747681
-0.0723267
-0.0700378
-0.0672913
-0.0646973
-0.0614929
-0.0595093
-0.0569153
-0.0553894
-0.0540161
-0.052948
-0.0520325
-0.0514221
-0.0508118
-0.0502014
-0.0500488
-0.0494385
-0.0488281
-0.0480652
-0.0465393
-0.0448608
-0.0430298
-0.0411987
-0.0392151
-0.0375366
-0.0350952
-0.032959
-0.0311279
-0.0296021
-0.0279236
-0.0267029
-0.0254822
-0.0250244
-0.0242615
-0.0233459
-0.0224304
-0.0218201
-0.0212097
-0.0196838
-0.0183105
-0.0169373
-0.0152588
-0.0137329
-0.0120544
-0.0102234
-0.00854492
-0.00686646
-0.00549316
-0.00396729
-0.00320435
-0.00274658
-0.00213623
-0.00167847
-0.00137329
-0.000915527
-0.000762939
-0.000152588
0.000457764
0.000610352
0.00183105
0.00305176
0.00427246
0.00610352
0.00778198
0.00946045
0.0108337
0.012207
0.0140381
0.0149536
0.0164795
0.0172424
0.0178528
0.0184631
0.0198364
0.0205994
0.0215149
0.0231934
0.0244141
0.0256348
0.027771
0.0299072
0.0323486
0.0350952
0.0375366
0.0398254
0.0416565
0.0439453
0.0465393
0.0479126
0.0491333
0.0508118
0.0518799
0.0523376
0.052948
0.0538635
0.0546265
0.0553894
0.0566101
0.0576782
0.0592041
0.0610352
0.0627136
0.065155
0.0671387
0.0691223
0.0712585
0.0733948
0.0753784
0.0773621
0.0784302
0.0798035
0.080719
0.0814819
0.08255
0.0836182
0.0843811
0.0860596
0.0871277
0.0886536
0.0904846
0.0927734
0.0949097
0.0970459
0.0996399
0.102081
0.104065
0.106049
0.108032
0.110016
0.111237
0.112305
0.113373
0.114136
0.114288
0.114899
0.115204
0.115662
0.115814
0.116119
0.11673
0.11734
0.117493
0.117645
0.117798
0.11795
0.11795
0.117645
0.117035
0.116272
0.114746
0.112915
0.110626
0.108032
0.105743
0.103455
0.100861
0.0985718
0.0959778
0.0938416
0.0918579
0.090332
0.0889587
0.0880432
0.0865173
0.0849915
0.0840759
0.08255
0.0808716
0.0788879
0.0769043
0.0746155
0.0718689
0.0686646
0.0654602
0.0624084
0.0593567
0.0553894
0.0524902
0.0485229
0.0457764
0.0428772
0.0398254
0.037384
0.0349426
0.0317383
0.0285339
0.0254822
0.0221252
0.018158
0.0135803
0.00915527
0.00473022
0.0
-0.0050354
-0.00930786
-0.0143433
-0.0190735
-0.0231934
-0.0273132
-0.0311279
-0.0346375
-0.0375366
-0.0402832
-0.0431824
-0.0457764
-0.0479126
-0.0508118
-0.0527954
-0.0550842
-0.057373
-0.059967
-0.0621033
-0.0650024
-0.0666809
-0.0691223
-0.0706482
-0.0726318
-0.0741577
-0.0750732
-0.0759888
-0.0764465
-0.0770569
-0.0772095
-0.0775146
-0.0778198
-0.0779724
-0.0782776
-0.0787354
-0.0794983
-0.080719
-0.0817871
-0.0834656
-0.0848389
-0.0866699
-0.0875854
-0.0891113
-0.0901794
-0.0904846
-0.0915527
-0.0909424
-0.0907898
-0.0901794
-0.0894165
-0.0883484
-0.0874329
-0.0865173
-0.085907
-0.0848389
-0.0842285
-0.0834656
-0.083313
-0.083313
-0.0828552
-0.083313
-0.0834656
-0.0836182
-0.0836182
-0.083313
-0.0831604
-0.08255
-0.0817871
-0.0810242
-0.0801086
-0.0788879
-0.0779724
-0.0769043
-0.0756836
-0.0749207
-0.0740051
-0.0735474
-0.0732422
-0.0730896
-0.0732422
-0.0732422
-0.0730896
-0.0727844
-0.0726318
-0.0717163
-0.0708008
-0.0700378
-0.0682068
-0.0668335
-0.0653076
-0.0636292
-0.0614929
-0.0598145
-0.058136
-0.0567627
-0.0556946
-0.0549316
-0.0543213
-0.0541687
-0.0541687
-0.0541687
-0.0540161
-0.0541687
-0.0541687
-0.0540161
-0.0537109
-0.052948
-0.0520325
-0.0511169
-0.0498962
-0.0488281
-0.0476074
-0.0465393
-0.0457764
-0.0444031
-0.0440979
-0.0434875
-0.0431824
-0.0436401
-0.0428772
-0.043335
-0.0431824
-0.0431824
-0.0430298
-0.0427246
-0.0421143
-0.0410461
-0.0395203
-0.0382996
-0.0364685
-0.0349426
-0.0331116
-0.0312805
-0.0297546
-0.0280762
-0.0262451
-0.0250244
-0.0244141
-0.0236511
-0.0236511
-0.0230408
-0.022583
-0.0222778
-0.0219727
-0.0213623
-0.0205994
-0.0195312
-0.0184631
-0.0169373
-0.0152588
-0.0137329
-0.0119019
-0.0105286
-0.00900269
-0.00793457
-0.00671387
-0.00595093
-0.00564575
-0.00564575
-0.00564575
-0.00595093
-0.00610352
-0.0062561
-0.00656128
-0.00640869
-0.00656128
-0.00595093
-0.00610352
-0.00549316
-0.00518799
-0.00442505
-0.00442505
-0.00427246
-0.00411987
-0.00442505
-0.00427246
-0.00488281
-0.00579834
-0.0062561
-0.00808716
-0.00854492
-0.00930786
-0.0100708
-0.0111389
-0.0119019
-0.0123596
-0.0125122
-0.0123596
-0.012207
-0.0115967
-0.0111389
-0.0108337
-0.010376
-0.00946045
-0.0100708
-0.0102234
-0.0106812
-0.0111389
-0.0117493
-0.0131226
-0.0143433
-0.0152588
-0.0163269
-0.0175476
-0.018158
-0.0187683
-0.0192261
-0.0193787
-0.0195312
-0.0192261
-0.0192261
-0.0190735
-0.0189209
-0.0187683
-0.0192261
-0.0190735
-0.0198364
-0.0205994
-0.0213623
-0.0222778
-0.0230408
-0.0239563
-0.0248718
-0.025177
-0.0254822
-0.0253296
-0.0250244
-0.0234985
-0.0222778
-0.020752
-0.0189209
-0.0167847
-0.0144958
-0.0123596
-0.00991821
-0.00778198
-0.00579834
-0.00366211
-0.00244141
-0.000305176
0.00152588
0.00335693
0.00518799
0.00747681
0.00930786
0.0117493
0.0141907
0.0170898
0.0198364
0.0222778
0.0248718
0.0273132
0.0302124
0.0325012
0.03479
0.0364685
0.0386047
0.0396729
0.0411987
0.0428772
0.0440979
0.0460815
0.0479126
0.0491333
0.0506592
0.0527954
0.0558472
0.0588989
0.062561
0.0657654
0.0691223
0.0724792
0.0753784
0.0784302
0.0810242
0.0831604
0.0845337
0.0852966
0.0856018
0.0852966
0.0845337
0.0837708
0.0828552
0.0816345
0.0799561
0.0785828
0.0775146
0.0761414
0.0744629
0.0735474
0.0715637
0.0695801
0.0669861
0.0646973
0.0614929
0.0582886
0.0546265
0.0498962
0.0454712
0.0402832
0.0357056
0.0300598
0.0241089
0.0184631
0.012207
0.00595093
0.0
-0.00610352
-0.0117493
-0.0178528
-0.0234985
-0.0286865
-0.0341797
-0.0393677
-0.0445557
-0.0495911
-0.0549316
-0.0598145
-0.0648499
-0.0695801
-0.0738525
-0.0776672
-0.0813293
-0.0842285
-0.0866699
-0.088501
-0.0895691
-0.090332
-0.0906372
-0.0901794
-0.0895691
-0.0889587
-0.0881958
-0.0874329
-0.0863647
-0.0854492
-0.085144
-0.0848389
-0.0845337
-0.0845337
-0.0842285
-0.0843811
-0.0839233
-0.0836182
-0.0834656
-0.0827026
-0.0820923
-0.0816345
-0.0808716
-0.0796509
-0.0788879
-0.0782776
-0.0775146
-0.0770569
-0.0770569
-0.0770569
-0.0776672
-0.078125
-0.0782776
-0.0794983
-0.0798035
-0.0799561
-0.0804138
-0.0804138
-0.0799561
-0.0794983
-0.0785828
-0.0770569
-0.0753784
-0.0730896
-0.0708008
-0.0679016
-0.065155
-0.0616455
-0.0584412
-0.0552368
-0.0524902
-0.0494385
-0.0469971
-0.0450134
-0.0437927
-0.042572
-0.0405884
-0.0387573
-0.0361633
-0.0323486
-0.0280762
-0.0219727
-0.0146484
-0.00564575
0.00366211
0.0154114
0.0292969
0.0453186
0.065155
0.0886536
0.11673
0.149994
0.187073
0.228424
0.273438
0.32074
0.370331
0.42038
0.472107
0.524445
0.57724
0.628967
0.679474
0.726318
0.769348
0.805969
0.835419
0.85556
0.866699
0.867462
0.857391
0.836182
0.804443
0.763702
0.712585
0.653381
0.587158
0.513916
0.435486
0.353699
0.270233
0.185699
0.102081
0.0212097
-0.0563049
-0.127869
-0.193329
-0.251312
-0.301208
-0.34256
-0.375519
-0.398865
-0.414124
-0.421143
-0.419769
-0.411224
-0.396271
-0.375519
-0.349884
-0.32135
-0.29007
-0.257568
-0.224457
-0.192108
-0.160828
-0.131989
-0.105896
-0.0828552
-0.0634766
-0.0474548
-0.0354004
-0.0271606
-0.0224304
-0.0202942
-0.0202942
-0.0227356
-0.0262451
-0.0314331
-0.037384
-0.0430298
-0.0480652
-0.0532532
-0.0578308
-0.0616455
-0.0645447
-0.0663757
-0.0674438
-0.0683594
-0.0679016
-0.0674438
-0.0663757
-0.0653076
-0.0639343
-0.0622559
-0.0608826
-0.0592041
-0.057373
-0.0553894
-0.0538635
-0.0520325
-0.0502014
-0.0476074
-0.0460815
-0.0439453
-0.0424194
-0.0408936
-0.0393677
-0.0378418
-0.0369263
-0.0358582
-0.0352478
-0.0350952
-0.0341797
-0.0341797
-0.0335693
-0.0337219
-0.0331116
-0.0328064
-0.0317383
-0.0308228
-0.0296021
-0.0279236
-0.0257874
-0.0238037
-0.0221252
-0.0202942
-0.0187683
-0.0167847
-0.015564
-0.0143433
-0.0132751
-0.0134277
-0.0126648
-0.0128174
-0.0125122
-0.0123596
-0.0126648
-0.0126648
-0.01297
-0.0123596
-0.0120544
-0.0119019
-0.0108337
-0.0102234
-0.00915527
-0.00808716
-0.00717163
-0.00656128
-0.00564575
-0.00488281
-0.00411987
-0.00411987
-0.0038147
-0.00366211
-0.00274658
-0.00228882
-0.0012207
0.0
0.0012207
0.00320435
0.00549316
0.00793457
0.0112915
0.0146484
0.017395
0.0204468
0.0231934
0.0259399
0.0285339
0.0306702
0.0323486
0.0334167
0.03479
0.0354004
0.0357056
0.0361633
0.0369263
0.0367737
0.0370789
0.0372314
0.0379944
0.0389099
0.0398254
0.0410461
0.042572
0.0440979
0.0456238
0.0474548
0.0492859
0.0511169
0.0526428
0.0538635
0.0556946
0.0570679
0.0579834
0.0601196
0.0614929
0.0636292
0.0656128
0.0675964
0.0698853
0.0724792
0.0750732
0.0776672
0.0799561
0.0819397
0.0837708
0.085907
0.0878906
0.0888062
0.0889587
0.0898743
0.0898743
0.0895691
0.0894165
0.0891113
0.0889587
0.0891113
0.0892639
0.0897217
0.0906372
0.0914001
0.092926
0.0941467
0.0958252
0.0971985
0.0987244
0.10025
0.101776
0.102234
0.103149
0.103302
0.103302
0.102539
0.102081
0.101471
0.100555
0.0997925
0.0990295
0.0982666
0.0978088
0.0973511
0.0970459
0.0973511
0.0968933
0.0968933
0.0965881
0.0965881
0.0961304
0.0956726
0.0946045
0.0935364
0.0924683
0.0909424
0.0894165
0.0880432
0.0862122
0.0848389
0.0831604
0.0816345
0.0801086
0.0793457
0.078125
0.0775146
0.0762939
0.0750732
0.0733948
0.0714111
0.0694275
0.0671387
0.0640869
0.0608826
0.0575256
0.052948
0.0492859
0.0447083
0.0408936
0.0372314
0.0326538
0.0286865
0.0248718
0.0209045
0.0172424
0.0140381
0.0105286
0.00747681
0.00350952
0.000152588
-0.00335693
-0.00762939
-0.0115967
-0.0157166
-0.0201416
-0.0248718
-0.0289917
-0.0334167
-0.0376892
-0.0415039
-0.0450134
-0.0486755
-0.0517273
-0.0541687
-0.0563049
-0.0582886
-0.0601196
-0.0622559
-0.0636292
-0.0648499
-0.0665283
-0.0679016
-0.0695801
-0.0708008
-0.0721741
-0.0738525
-0.0752258
-0.0759888
-0.0767517
-0.0775146
-0.0779724
-0.0779724
-0.0778198
-0.0773621
-0.0764465
-0.0761414
-0.0749207
-0.0740051
-0.0727844
-0.0721741
-0.071106
-0.0708008
-0.0709534
-0.0708008
-0.0712585
-0.0720215
-0.0724792
-0.0730896
-0.0735474
-0.0738525
-0.0741577
-0.0740051
-0.0741577
-0.0735474
-0.072937
-0.0721741
-0.071106
-0.0701904
-0.0694275
-0.0686646
-0.0679016
-0.0671387
-0.0668335
-0.0666809
-0.0665283
-0.0665283
-0.0665283
-0.0665283
-0.0657654
-0.065918
-0.065155
-0.0645447
-0.0631714
-0.0617981
-0.0602722
-0.0582886
-0.0569153
-0.0550842
-0.0535583
-0.0515747
-0.0508118
-0.0495911
-0.0495911
-0.0489807
-0.0489807
-0.0494385
-0.0495911
-0.0498962
-0.0495911
-0.0497437
-0.0497437
-0.0495911
-0.0488281
-0.0476074
-0.045929
-0.0440979
-0.042572
-0.0402832
-0.0382996
-0.0361633
-0.0341797
-0.0326538
-0.0314331
-0.030365
-0.0294495
-0.0294495
-0.0286865
-0.0286865
-0.0283813
-0.0282288
-0.027771
-0.0274658
-0.0271606
-0.0263977
-0.0253296
-0.0245667
-0.0234985
-0.0224304
-0.0216675
-0.020752
-0.019989
-0.0189209
-0.0187683
-0.0184631
-0.0184631
-0.0183105
-0.0184631
-0.0184631
-0.018158
-0.0175476
-0.017395
-0.0160217
-0.0154114
-0.0137329
-0.0123596
-0.0105286
-0.0088501
-0.00732422
-0.00564575
-0.00427246
-0.00274658
-0.00152588
-0.0012207
-0.00137329
-0.0012207
-0.00183105
-0.00183105
-0.00228882
-0.00259399
-0.00305176
-0.00320435
-0.00289917
-0.00274658
-0.00228882
-0.00183105
-0.0012207
-0.000305176
0.000762939
0.000762939
0.00167847
0.00198364
0.00198364
0.00213623
0.0012207
0.000915527
0.000610352
-0.000610352
-0.000915527
-0.00228882
-0.00335693
-0.0038147
-0.00442505
-0.00473022
-0.00488281
-0.00488281
-0.00473022
-0.00457764
-0.00396729
-0.00320435
-0.00274658
-0.00274658
-0.00198364
-0.00167847
-0.00183105
-0.00183105
-0.00228882
-0.00244141
-0.00244141
-0.00244141
-0.00228882
-0.00167847
-0.00152588
-0.00106812
-0.000152588
0.00106812
0.0012207
0.00228882
0.00274658
0.00305176
0.00289917
0.00320435
0.00274658
0.00259399
0.00183105
0.00137329
0.000915527
0.000305176
0.000457764
0.000915527
0.00183105
0.00228882
0.00335693
0.00488281
0.00686646
0.00976562
0.01297
0.0160217
0.0193787
0.0233459
0.0263977
0.0294495
0.032196
0.0349426
0.0370789
0.0386047
0.0398254
0.0404358
0.0410461
0.0415039
0.0411987
0.0419617
0.0416565
0.0427246
0.0440979
0.0453186
0.0471497
0.0497437
0.0518799
0.0546265
0.0575256
0.0601196
0.062561
0.0656128
0.068512
0.0708008
0.0735474
0.0761414
0.0791931
0.0820923
0.0846863
0.0874329
0.0900269
0.092926
0.0953674
0.0975037
0.0993347
0.100555
0.101776
0.102386
0.102539
0.101929
0.101318
0.0994873
0.098114
0.09552
0.092926
0.0897217
0.0868225
0.0837708
0.0808716
0.0773621
0.0743103
0.0712585
0.0688171
0.065918
0.0631714
0.0602722
0.0570679
0.0543213
0.0508118
0.0469971
0.0430298
0.0386047
0.0331116
0.0276184
0.0215149
0.0152588
0.00930786
0.00305176
-0.00335693
-0.00930786
-0.014801
-0.0202942
-0.025177
-0.0299072
-0.0346375
-0.0384521
-0.0427246
-0.0456238
-0.0491333
-0.0521851
-0.0552368
-0.0582886
-0.0611877
-0.0639343
-0.0666809
-0.068512
-0.0709534
-0.0721741
-0.0737
-0.0750732
-0.0756836
-0.0762939
-0.0759888
-0.075531
-0.075531
-0.0749207
-0.0746155
-0.0740051
-0.0738525
-0.0741577
-0.0744629
-0.0750732
-0.0759888
-0.0772095
-0.0787354
-0.0799561
-0.0816345
-0.0828552
-0.0843811
-0.0849915
-0.0863647
-0.0865173
-0.0866699
-0.0868225
-0.0865173
-0.0863647
-0.0856018
-0.0848389
-0.0845337
-0.0837708
-0.0831604
-0.08255
-0.08255
-0.0823975
-0.0822449
-0.0819397
-0.0816345
-0.0810242
-0.0802612
-0.0787354
-0.0770569
-0.0747681
-0.0717163
-0.0686646
-0.0653076
-0.0622559
-0.0596619
-0.0566101
-0.0543213
-0.0512695
-0.0486755
-0.0448608
-0.040741
-0.0358582
-0.0299072
-0.0216675
-0.0132751
-0.00137329
0.0117493
0.0271606
0.0460815
0.0694275
0.0970459
0.13031
0.16922
0.213165
0.261993
0.314331
0.36911
0.426331
0.484161
0.542297
0.600891
0.658722
0.715332
0.770264
0.820007
0.865479
0.904236
0.935211
0.956116
0.967712
0.968018
0.956421
0.93399
0.899658
0.854645
0.798645
0.733643
0.65918
0.578156
0.48996
0.398102
0.302887
0.206146
0.111694
0.0196838
-0.0688171
-0.150757
-0.225677
-0.292053
-0.349121
-0.396118
-0.432434
-0.458984
-0.475464
-0.482483
-0.479889
-0.46936
-0.452118
-0.428772
-0.401001
-0.369415
-0.335388
-0.300293
-0.265045
-0.230713
-0.197449
-0.167389
-0.139923
-0.115662
-0.0950623
-0.0779724
-0.0643921
-0.0544739
-0.0469971
-0.0434875
-0.0424194
-0.0439453
-0.0469971
-0.0518799
-0.0578308
-0.0645447
-0.0715637
-0.0784302
-0.0849915
-0.0909424
-0.0961304
-0.0997925
-0.102692
-0.104523
-0.10498
-0.10437
-0.102844
-0.0999451
-0.0970459
-0.0938416
-0.0900269
-0.0863647
-0.0830078
-0.0796509
-0.0770569
-0.0746155
-0.0726318
-0.0712585
-0.0698853
-0.0682068
-0.0675964
-0.0669861
-0.0660706
-0.0654602
-0.0643921
-0.0634766
-0.0621033
-0.0610352
-0.0601196
-0.0588989
-0.0578308
-0.0567627
-0.055542
-0.0544739
-0.0535583
-0.0526428
-0.0514221
-0.0502014
-0.0483704
-0.0471497
-0.0454712
-0.0440979
-0.0424194
-0.0408936
-0.0389099
-0.0369263
-0.0349426
-0.0332642
-0.0314331
-0.0297546
-0.0283813
-0.0273132
-0.0265503
-0.0257874
-0.0259399
-0.0256348
-0.0262451
-0.0273132
-0.0280762
-0.0286865
-0.0292969
-0.0296021
-0.0300598
-0.0299072
-0.0289917
-0.0280762
-0.0265503
-0.0248718
-0.0227356
-0.0202942
-0.0177002
-0.0157166
-0.0132751
-0.0112915
-0.00961304
-0.00823975
-0.00686646
-0.00549316
-0.00457764
-0.00366211
-0.00289917
-0.00183105
-0.00167847
-0.000610352
0.000457764
0.00152588
0.00305176
0.00411987
0.00564575
0.00732422
0.0088501
0.0108337
0.0125122
0.0135803
0.0149536
0.0160217
0.0172424
0.0183105
0.0190735
0.0204468
0.0219727
0.0238037
0.0259399
0.0279236
0.030365
0.0334167
0.0364685
0.0390625
0.0416565
0.0448608
0.0473022
0.0498962
0.0523376
0.0535583
0.0553894
0.0563049
0.057373
0.058136
0.0582886
0.0587463
0.0588989
0.0593567
0.0598145
0.0604248
0.0613403
0.0628662
0.0642395
0.0657654
0.0672913
0.0686646
0.070343
0.0720215
0.0738525
0.0750732
0.0759888
0.0770569
0.0773621
0.0776672
0.0779724
0.0778198
0.0782776
0.0785828
0.0788879
0.0790405
0.0796509
0.0805664
0.0811768
0.0823975
0.0834656
0.0837708
0.0846863
0.0852966
0.085907
0.0862122
0.0857544
0.0854492
0.0840759
0.0828552
0.0814819
0.0799561
0.0785828
0.0765991
0.0752258
0.0733948
0.0718689
0.070343
0.0691223
0.0679016
0.0669861
0.0654602
0.0642395
0.0628662
0.0611877
0.0595093
0.057373
0.0547791
0.0517273
0.0489807
0.0456238
0.0424194
0.0395203
0.0369263
0.0338745
0.0312805
0.0285339
0.0265503
0.0244141
0.0219727
0.0196838
0.0167847
0.0141907
0.0111389
0.00762939
0.00396729
0.000610352
-0.00366211
-0.00839233
-0.0131226
-0.0177002
-0.022583
-0.0274658
-0.0317383
-0.0361633
-0.0398254
-0.0431824
-0.0462341
-0.0489807
-0.0515747
-0.0537109
-0.0558472
-0.0576782
-0.0595093
-0.0613403
-0.0636292
-0.0654602
-0.0680542
-0.0704956
-0.0732422
-0.0759888
-0.0779724
-0.0802612
-0.0827026
-0.0843811
-0.0863647
-0.0880432
-0.0894165
-0.0904846
-0.0915527
-0.0924683
-0.0939941
-0.0946045
-0.09552
-0.0959778
-0.0965881
-0.0975037
-0.0984192
-0.098877
-0.0994873
-0.0999451
-0.0999451
-0.100098
-0.100861
-0.100708
-0.100555
-0.100098
-0.0991821
-0.098114
-0.0968933
-0.09552
-0.0944519
-0.0935364
-0.0923157
-0.0915527
-0.0917053
-0.0917053
-0.0915527
-0.0921631
-0.0926208
-0.0930786
-0.0935364
-0.0938416
-0.0938416
-0.0939941
-0.0941467
-0.0935364
-0.0924683
-0.0918579
-0.090332
-0.0894165
-0.0881958
-0.0869751
-0.0860596
-0.0849915
-0.0842285
-0.0837708
-0.0840759
-0.0842285
-0.0840759
-0.0843811
-0.085144
-0.0856018
-0.085907
-0.085907
-0.0862122
-0.0854492
-0.0846863
-0.0840759
-0.0831604
-0.0813293
-0.0801086
-0.0791931
-0.0778198
-0.0762939
-0.0756836
-0.0744629
-0.0740051
-0.0737
-0.0733948
-0.0733948
-0.0724792
-0.0721741
-0.0715637
-0.0704956
-0.0692749
-0.067749
-0.065918
-0.0642395
-0.0614929
-0.0595093
-0.057373
-0.0547791
-0.052948
-0.0505066
-0.0486755
-0.0474548
-0.0460815
-0.0453186
-0.045166
-0.0442505
-0.0439453
-0.0431824
-0.0428772
-0.0419617
-0.0410461
-0.0401306
-0.0386047
-0.0372314
-0.0357056
-0.0338745
-0.032196
-0.0306702
-0.0291443
-0.027771
-0.0270081
-0.0260925
-0.0257874
-0.0250244
-0.0250244
-0.0247192
-0.0247192
-0.0248718
-0.0244141
-0.0245667
-0.0238037
-0.0231934
-0.0227356
-0.0216675
-0.0212097
-0.0201416
-0.0192261
-0.018158
-0.017395
-0.0170898
-0.0163269
-0.0163269
-0.0163269
-0.0167847
-0.0169373
-0.0167847
-0.0175476
-0.0178528
-0.0175476
-0.0175476
-0.0172424
-0.0169373
-0.0161743
-0.0152588
-0.0138855
-0.0126648
-0.0117493
-0.0108337
-0.00991821
-0.00915527
-0.0088501
-0.00854492
-0.00854492
-0.00915527
-0.00946045
-0.0100708
-0.0108337
-0.0115967
-0.012207
-0.01297
-0.0131226
-0.0132751
-0.01297
-0.0128174
-0.012207
-0.0120544
-0.0111389
-0.0108337
-0.0100708
-0.00976562
-0.00930786
-0.00869751
-0.00900269
-0.00808716
-0.00778198
-0.00671387
-0.00595093
-0.00457764
-0.00289917
-0.00106812
0.0012207
0.00411987
0.00747681
0.0115967
0.0152588
0.0190735
0.0230408
0.0270081
0.0302124
0.0334167
0.0360107
0.0376892
0.0389099
0.0396729
0.0398254
0.039978
0.039978
0.0401306
0.0405884
0.0410461
0.0419617
0.042572
0.0444031
0.0463867
0.0479126
0.0502014
0.0526428
0.0550842
0.058136
0.0605774
0.0631714
0.0660706
0.0680542
0.0698853
0.0718689
0.0735474
0.0750732
0.0761414
0.0769043
0.0778198
0.0778198
0.078125
0.0784302
0.0779724
0.0779724
0.0773621
0.0764465
0.0758362
0.0743103
0.0721741
0.0701904
0.0674438
0.0642395
0.0611877
0.0572205
0.0535583
0.0495911
0.0457764
0.0413513
0.0379944
0.0337219
0.030365
0.0268555
0.0233459
0.0201416
0.0170898
0.0131226
0.00930786
0.00549316
0.00167847
-0.00305176
-0.00762939
-0.0128174
-0.018158
-0.0231934
-0.0286865
-0.0335693
-0.0387573
-0.0436401
-0.0483704
-0.0526428
-0.0566101
-0.0601196
-0.0631714
-0.0663757
-0.0688171
-0.071106
-0.072937
-0.0756836
-0.0772095
-0.0791931
-0.0811768
-0.0830078
-0.0848389
-0.0866699
-0.088501
-0.0898743
-0.0909424
-0.0921631
-0.0927734
-0.092926
-0.0930786
-0.0920105
-0.0914001
-0.0900269
-0.0889587
-0.0872803
-0.0857544
-0.0843811
-0.0834656
-0.0823975
-0.0819397
-0.0817871
-0.0819397
-0.0817871
-0.0819397
-0.0823975
-0.0823975
-0.0827026
-0.0828552
-0.0828552
-0.0827026
-0.0819397
-0.0814819
-0.0804138
-0.0798035
-0.0790405
-0.078125
-0.0776672
-0.0770569
-0.0765991
-0.0759888
-0.0759888
-0.0762939
-0.075531
-0.0759888
-0.075531
-0.075531
-0.0744629
-0.0737
-0.0724792
-0.0717163
-0.0708008
-0.0695801
-0.0680542
-0.0657654
-0.0628662
-0.0595093
-0.0543213
-0.0482178
-0.0410461
-0.0320435
-0.0212097
-0.00778198
0.00793457
0.0270081
0.0498962
0.078125
0.112152
0.151672
0.196686
0.247192
0.301666
0.35965
0.420532
0.482483
0.545654
0.609283
0.671997
0.7341
0.793152
0.848083
0.897064
0.938721
0.971069
0.993652
1.0051
1.00418
0.991516
0.966492
0.930176
0.882263
0.823975
0.755615
0.678864
0.594177
0.503387
0.408783
0.311127
0.21347
0.116272
0.0222778
-0.0671387
-0.150146
-0.225677
-0.292358
-0.349121
-0.395966
-0.431976
-0.457611
-0.47226
-0.477753
-0.473328
-0.460968
-0.441132
-0.415802
-0.385437
-0.35202
-0.316315
-0.279999
-0.244598
-0.210571
-0.178833
-0.150146
-0.125275
-0.104065
-0.0869751
-0.0741577
-0.0646973
-0.0590515
-0.0561523
-0.0561523
-0.058136
-0.062561
-0.067749
-0.0737
-0.0802612
-0.0872803
-0.093689
-0.100403
-0.106354
-0.111542
-0.116577
-0.12085
-0.124359
-0.127258
-0.128632
-0.128937
-0.129395
-0.128784
-0.127258
-0.124817
-0.121918
-0.119171
-0.116119
-0.112762
-0.109253
-0.106049
-0.103149
-0.100555
-0.0982666
-0.0964355
-0.0950623
-0.0941467
-0.0933838
-0.092926
-0.0930786
-0.0921631
-0.0921631
-0.0912476
-0.091095
-0.0906372
-0.0894165
-0.0883484
-0.0869751
-0.085907
-0.0843811
-0.08255
-0.0814819
-0.0799561
-0.0785828
-0.0779724
-0.0767517
-0.0761414
-0.0752258
-0.0741577
-0.0738525
-0.0726318
-0.0717163
-0.070343
-0.0689697
-0.0671387
-0.0653076
-0.0628662
-0.0604248
-0.0579834
-0.0559998
-0.0535583
-0.0509644
-0.0492859
-0.0473022
-0.045929
-0.0442505
-0.0437927
-0.0427246
-0.0416565
-0.0405884
-0.0398254
-0.038147
-0.0370789
-0.035553
-0.0341797
-0.0320435
-0.0300598
-0.027771
-0.0253296
-0.0230408
-0.0213623
-0.0190735
-0.0170898
-0.0157166
-0.0143433
-0.0137329
-0.0132751
-0.0131226
-0.0126648
-0.0128174
-0.0126648
-0.0120544
-0.0125122
-0.0117493
-0.0106812
-0.00946045
-0.00793457
-0.00610352
-0.00427246
-0.00198364
-0.000152588
0.00228882
0.00442505
0.00640869
0.00839233
0.010376
0.012207
0.0135803
0.0158691
0.0177002
0.0198364
0.0215149
0.0238037
0.0263977
0.0286865
0.0318909
0.0349426
0.0386047
0.0410461
0.0444031
0.0473022
0.0502014
0.0531006
0.0550842
0.0569153
0.0585938
0.059967
0.0610352
0.0614929
0.0628662
0.0634766
0.0650024
0.065918
0.0672913
0.0682068
0.0698853
0.0717163
0.0732422
0.0743103
0.0758362
0.0778198
0.0787354
0.0796509
0.0805664
0.0810242
0.0813293
0.0811768
0.0810242
0.0808716
0.0802612
0.0796509
0.0790405
0.0793457
0.0784302
0.0784302
0.0784302
0.0784302
0.0791931
0.0791931
0.0791931
0.0788879
0.0785828
0.0784302
0.0772095
0.0762939
0.0746155
0.072937
0.0708008
0.0686646
0.0665283
0.0646973
0.0624084
0.0602722
0.0587463
0.0572205
0.0558472
0.0547791
0.0538635
0.052948
0.0521851
0.0509644
0.0497437
0.0480652
0.0468445
0.0444031
0.0419617
0.0393677
0.0363159
0.0334167
0.0300598
0.0268555
0.0231934
0.0196838
0.0164795
0.0131226
0.0100708
0.00747681
0.00411987
0.00137329
-0.0012207
-0.00442505
-0.00778198
-0.0106812
-0.0140381
-0.0178528
-0.0218201
-0.0254822
-0.0297546
-0.0337219
-0.037384
-0.0408936
-0.0444031
-0.0476074
-0.050354
-0.052948
-0.0547791
-0.0564575
-0.0578308
-0.0585938
-0.059967
-0.0605774
-0.0616455
-0.062561
-0.0634766
-0.065155
-0.0666809
-0.0688171
-0.0706482
-0.0727844
-0.0750732
-0.0775146
-0.0796509
-0.0816345
-0.0837708
-0.085907
-0.087738
-0.0889587
-0.0904846
-0.0921631
-0.0938416
-0.0953674
-0.0970459
-0.0985718
-0.100098
-0.101776
-0.103455
-0.10498
-0.106659
-0.10849
-0.109253
-0.110321
-0.110779
-0.111084
-0.111084
-0.110168
-0.1091
-0.107269
-0.105743
-0.104065
-0.101471
-0.0994873
-0.0976562
-0.0961304
-0.0944519
-0.0935364
-0.0927734
-0.0924683
-0.0924683
-0.0924683
-0.0930786
-0.0932312
-0.0938416
-0.0944519
-0.0949097
-0.0947571
-0.0950623
-0.0946045
-0.0942993
-0.0941467
-0.0939941
-0.093689
-0.0930786
-0.092926
-0.0932312
-0.0924683
-0.0927734
-0.0930786
-0.0932312
-0.0933838
-0.0932312
-0.092926
-0.0927734
-0.0923157
-0.0914001
-0.0901794
-0.0889587
-0.0872803
-0.085144
-0.083313
-0.0816345
-0.0798035
-0.0782776
-0.0764465
-0.0753784
-0.0743103
-0.0735474
-0.072937
-0.0721741
-0.0721741
-0.0714111
-0.0706482
-0.0698853
-0.0689697
-0.0682068
-0.0666809
-0.0653076
-0.0637817
-0.0616455
-0.0598145
-0.0579834
-0.0567627
-0.0547791
-0.0532532
-0.0524902
-0.0517273
-0.0515747
-0.0517273
-0.0517273
-0.0521851
-0.052948
-0.0534058
-0.0537109
-0.0537109
-0.0537109
-0.0538635
-0.0538635
-0.0527954
-0.0518799
-0.0506592
-0.0498962
-0.0489807
