-0.000305176
-0.00152588
-0.00335693
-0.00427246
-0.0050354
-0.00534058
-0.00488281
-0.00366211
-0.00152588
0.000152588
0.00274658
0.00442505
0.00640869
0.00808716
0.00946045
0.0102234
0.0102234
0.00930786
0.00747681
0.00534058
0.00366211
0.00183105
0.0
-0.00183105
-0.00305176
-0.0038147
-0.0038147
-0.00259399
-0.00137329
0.000915527
0.00320435
0.00579834
0.00808716
0.0105286
0.0120544
0.0132751
0.0138855
0.0137329
0.0123596
0.0109863
0.00930786
0.00762939
0.0062561
0.00427246
0.00335693
0.00198364
0.00213623
0.00244141
0.00350952
0.00549316
0.00686646
0.00823975
0.00976562
0.0112915
0.0123596
0.0128174
0.0123596
0.0115967
0.00991821
0.00808716
0.00595093
0.00411987
0.00228882
0.00106812
0.000152588
-0.000610352
-0.000305176
0.000610352
0.00213623
0.00411987
0.00610352
0.00793457
0.0100708
0.0117493
0.0132751
0.0141907
0.0149536
0.0146484
0.0131226
0.0119019
0.010376
0.00869751
0.00686646
0.00534058
0.00427246
0.0038147
0.00396729
0.00488281
0.00671387
0.00915527
0.0111389
0.0134277
0.015564
0.017395
0.0190735
0.0204468
0.0209045
0.0202942
0.0192261
0.0177002
0.0158691
0.0143433
0.0126648
0.0109863
0.0100708
0.00900269
0.0088501
0.00961304
0.0105286
0.012207
0.0141907
0.0161743
0.0175476
0.0184631
0.0196838
0.0204468
0.0204468
0.0196838
0.0183105
0.0167847
0.0151062
0.0135803
0.0119019
0.0112915
0.0100708
0.00976562
0.00991821
0.0111389
0.0134277
0.0154114
0.0183105
0.020752
0.0234985
0.0257874
0.027771
0.0292969
0.0302124
0.030365
0.0296021
0.0282288
0.0268555
0.0256348
0.0239563
0.0230408
0.0222778
0.0219727
0.0221252
0.0230408
0.0250244
0.0270081
0.0289917
0.0312805
0.032959
0.0343323
0.0357056
0.0366211
0.0370789
0.0363159
0.0349426
0.0331116
0.0314331
0.0300598
0.0280762
0.0265503
0.0253296
0.0242615
0.0242615
0.0247192
0.0260925
0.0274658
0.0291443
0.0306702
0.032196
0.0326538
0.0332642
0.0332642
0.0325012
0.0308228
0.0283813
0.0257874
0.0233459
0.0205994
0.0184631
0.0166321
0.0154114
0.0141907
0.0143433
0.015564
0.0177002
0.0204468
0.0236511
0.0270081
0.0311279
0.03479
0.0384521
0.0421143
0.0447083
0.0466919
0.0485229
0.0486755
0.0492859
0.0482178
0.04776
0.0463867
0.0453186
0.0442505
0.0436401
0.043335
0.0428772
0.042572
0.0415039
0.0401306
0.0384521
0.0358582
0.0323486
0.0283813
0.0233459
0.0178528
0.0112915
0.00549316
-0.000762939
-0.00671387
-0.0120544
-0.0167847
-0.0209045
-0.0245667
-0.0268555
-0.0285339
-0.0296021
-0.0296021
-0.0291443
-0.0294495
-0.0288391
-0.0289917
-0.0294495
-0.0305176
-0.0323486
-0.0350952
-0.0386047
-0.0428772
-0.0466919
-0.0508118
-0.0547791
-0.0585938
-0.0624084
-0.0648499
-0.0665283
-0.0674438
-0.0671387
-0.0662231
-0.0653076
-0.0637817
-0.0622559
-0.0605774
-0.0598145
-0.0587463
-0.058136
-0.0582886
-0.0588989
-0.0598145
-0.06073
-0.0611877
-0.0617981
-0.0619507
-0.0616455
-0.06073
-0.0592041
-0.0567627
-0.0541687
-0.0500488
-0.0460815
-0.0424194
-0.0387573
-0.0357056
-0.032959
-0.030365
-0.0289917
-0.0288391
-0.0289917
-0.0294495
-0.0300598
-0.0311279
-0.0323486
-0.032959
-0.0334167
-0.0337219
-0.032959
-0.0317383
-0.0292969
-0.0268555
-0.0236511
-0.0210571
-0.0180054
-0.0149536
-0.0125122
-0.0100708
-0.00839233
-0.00808716
-0.00778198
-0.00793457
-0.00762939
-0.00671387
-0.00549316
-0.00350952
-0.000152588
0.0038147
0.0100708
0.0177002
0.0274658
0.0387573
0.0511169
0.0665283
0.0842285
0.103912
0.126495
0.152588
0.181427
0.213623
0.250092
0.290527
0.336456
0.386963
0.441742
0.502167
0.566864
0.635223
0.708008
0.784302
0.863495
0.944214
1.02646
1.1084
1.18866
1.26587
1.33804
1.40305
1.45844
1.5033
1.53503
1.55365
1.55762
1.54617
1.51932
1.47751
1.42136
1.35101
1.26831
1.17462
1.07071
0.958099
0.839233
0.714874
0.588074
0.460663
0.334167
0.211334
0.0935364
-0.0175476
-0.120697
-0.21347
-0.294647
-0.36377
-0.420532
-0.464325
-0.495453
-0.515137
-0.523987
-0.522156
-0.513611
-0.496979
-0.475922
-0.451202
-0.424652
-0.397491
-0.370941
-0.345459
-0.322571
-0.302582
-0.285492
-0.271759
-0.26001
-0.251007
-0.244141
-0.23941
-0.235901
-0.233612
-0.231323
-0.229492
-0.227661
-0.22583
-0.223999
-0.221863
-0.219879
-0.217896
-0.216522
-0.214386
-0.21286
-0.211792
-0.211029
-0.210419
-0.209198
-0.207977
-0.206451
-0.204163
-0.201874
-0.198212
-0.194244
-0.188599
-0.183105
-0.176849
-0.170441
-0.164337
-0.158081
-0.15213
-0.147095
-0.142059
-0.138245
-0.135345
-0.133514
-0.131073
-0.1297
-0.128174
-0.126648
-0.124512
-0.123291
-0.121002
-0.118408
-0.115356
-0.111542
-0.107727
-0.104218
-0.100403
-0.0970459
-0.0941467
-0.0915527
-0.0894165
-0.0886536
-0.0881958
-0.0886536
-0.0892639
-0.0898743
-0.0907898
-0.0909424
-0.091095
-0.090332
-0.0894165
-0.0874329
-0.0843811
-0.080719
-0.0769043
-0.0726318
-0.068512
-0.0645447
-0.0605774
-0.0570679
-0.0535583
-0.0511169
-0.0498962
-0.0489807
-0.0483704
-0.0485229
-0.0485229
-0.0485229
-0.0489807
-0.0485229
-0.0482178
-0.0469971
-0.0454712
-0.0431824
-0.040741
-0.0376892
-0.0350952
-0.0326538
-0.0300598
-0.027771
-0.0257874
-0.0253296
-0.0248718
-0.0254822
-0.0254822
-0.0260925
-0.0267029
-0.0267029
-0.0263977
-0.0263977
-0.0253296
-0.0236511
-0.0212097
-0.0180054
-0.014801
-0.0111389
-0.00762939
-0.00411987
-0.00106812
0.00167847
0.00350952
0.0050354
0.00564575
0.00549316
0.00518799
0.00457764
0.0038147
0.0038147
0.00411987
0.00442505
0.00549316
0.00701904
0.00976562
0.0131226
0.0167847
0.0205994
0.0245667
0.0283813
0.032196
0.0357056
0.0389099
0.0415039
0.0428772
0.0440979
0.045166
0.0456238
0.0463867
0.0468445
0.0483704
0.0500488
0.0518799
0.0546265
0.0576782
0.0621033
0.0662231
0.0708008
0.0749207
0.0793457
0.0828552
0.0869751
0.0898743
0.0930786
0.0944519
0.0956726
0.0967407
0.0982666
0.0990295
0.0997925
0.101471
0.104218
0.107117
0.110779
0.115356
0.12146
0.127563
0.13443
0.141144
0.148315
0.154877
0.161591
0.167542
0.172882
0.177307
0.181122
0.184784
0.187988
0.190887
0.194092
0.197296
0.201111
0.204773
0.209045
0.214081
0.219727
0.225372
0.231171
0.237122
0.242767
0.24765
0.252686
0.257111
0.259857
0.262451
0.264587
0.265961
0.266876
0.26825
0.26947
0.270691
0.272827
0.274506
0.277405
0.280914
0.285187
0.289001
0.293121
0.296783
0.300446
0.30304
0.305481
0.307007
0.307922
0.307007
0.305481
0.303497
0.300903
0.298004
0.295105
0.292053
0.288391
0.28595
0.283203
0.281219
0.279694
0.277405
0.275879
0.273438
0.270233
0.266876
0.262756
0.258026
0.25177
0.244598
0.235748
0.227051
0.21698
0.206909
0.196228
0.185242
0.174103
0.163269
0.152588
0.14267
0.132751
0.123291
0.113373
0.103302
0.0930786
0.08255
0.0715637
0.0604248
0.0485229
0.0361633
0.0231934
0.00976562
-0.00320435
-0.0152588
-0.027771
-0.0390625
-0.0498962
-0.0598145
-0.0686646
-0.0762939
-0.08255
-0.0894165
-0.0944519
-0.0999451
-0.104828
-0.110016
-0.115051
-0.120392
-0.125427
-0.131683
-0.137634
-0.144196
-0.150146
-0.15564
-0.161133
-0.1651
-0.168457
-0.171967
-0.174103
-0.174866
-0.174561
-0.174255
-0.173035
-0.171814
-0.170593
-0.168915
-0.167999
-0.167236
-0.166779
-0.167084
-0.168457
-0.170135
-0.171509
-0.17334
-0.175018
-0.176392
-0.17746
-0.178223
-0.17868
-0.177612
-0.175934
-0.174103
-0.171509
-0.16922
-0.167084
-0.164948
-0.162659
-0.161285
-0.159454
-0.159149
-0.159454
-0.159607
-0.159607
-0.159607
-0.159607
-0.159454
-0.158386
-0.157318
-0.155334
-0.152435
-0.149689
-0.145416
-0.142365
-0.139008
-0.135803
-0.133057
-0.13092
-0.129242
-0.128326
-0.128021
-0.128937
-0.130615
-0.131836
-0.133057
-0.13443
-0.135193
-0.135803
-0.135651
-0.134888
-0.133057
-0.131073
-0.128021
-0.125275
-0.122833
-0.120087
-0.117645
-0.115662
-0.113983
-0.112
-0.112152
-0.112762
-0.113525
-0.114746
-0.115509
-0.116577
-0.117798
-0.118103
-0.118408
-0.118103
-0.11673
-0.115204
-0.112915
-0.110779
-0.108337
-0.105896
-0.104065
-0.102539
-0.101318
-0.100708
-0.101166
-0.102386
-0.103455
-0.104675
-0.106049
-0.107269
-0.10788
-0.108643
-0.108948
-0.108337
-0.106812
-0.104218
-0.102081
-0.0990295
-0.0961304
-0.0935364
-0.0912476
-0.0888062
-0.0874329
-0.0865173
-0.0868225
-0.0872803
-0.0880432
-0.0886536
-0.0898743
-0.0907898
-0.091095
-0.0914001
-0.0912476
-0.0901794
-0.0883484
-0.0865173
-0.0837708
-0.0811768
-0.0787354
-0.0761414
-0.0740051
-0.0720215
-0.070343
-0.0698853
-0.0706482
-0.0717163
-0.072937
-0.0746155
-0.0764465
-0.0776672
-0.0791931
-0.0801086
-0.0808716
-0.0805664
-0.0798035
-0.0784302
-0.0765991
-0.0747681
-0.0726318
-0.0709534
-0.0692749
-0.0675964
-0.0663757
-0.0656128
-0.0662231
-0.0669861
-0.0682068
-0.0697327
-0.0706482
-0.0720215
-0.0727844
-0.0735474
-0.0735474
-0.0726318
-0.0712585
-0.0691223
-0.0669861
-0.0646973
-0.0624084
-0.0602722
-0.0585938
-0.0576782
-0.0570679
-0.0576782
-0.0588989
-0.0605774
-0.0627136
-0.065155
-0.0672913
-0.0695801
-0.0714111
-0.0732422
-0.0744629
-0.0744629
-0.0735474
-0.0724792
-0.070343
-0.068512
-0.065918
-0.0637817
-0.0616455
-0.0601196
-0.0584412
-0.0579834
-0.0579834
-0.0593567
-0.0602722
-0.0622559
-0.0639343
-0.0654602
-0.0665283
-0.067749
-0.0686646
-0.0680542
-0.0675964
-0.0665283
-0.0646973
-0.0634766
-0.0622559
-0.0605774
-0.0596619
-0.0592041
-0.0584412
-0.0592041
-0.0604248
-0.0622559
-0.0640869
-0.0660706
-0.0682068
-0.0701904
-0.0718689
-0.0730896
-0.0737
-0.0738525
-0.0727844
-0.0714111
-0.0700378
-0.067749
-0.065918
-0.0637817
-0.062561
-0.0616455
-0.0608826
-0.0614929
-0.0630188
-0.0650024
-0.0675964
-0.0701904
-0.0726318
-0.0761414
-0.078125
-0.0808716
-0.0830078
-0.0843811
-0.0846863
-0.0845337
-0.0843811
-0.0837708
-0.0836182
-0.0823975
-0.0823975
-0.0822449
-0.0820923
-0.0831604
-0.0845337
-0.0866699
-0.0888062
-0.0907898
-0.0930786
-0.0944519
-0.0958252
-0.0967407
-0.0971985
-0.0964355
-0.0949097
-0.0933838
-0.091095
-0.0888062
-0.0866699
-0.0846863
-0.0834656
-0.0817871
-0.0816345
-0.0819397
-0.0830078
-0.0849915
-0.0872803
-0.0900269
-0.0926208
-0.0952148
-0.0975037
-0.0994873
-0.100708
-0.100861
-0.100861
-0.0994873
-0.0978088
-0.0958252
-0.0938416
-0.0920105
-0.0900269
-0.0883484
-0.0874329
-0.0868225
-0.0869751
-0.0881958
-0.0892639
-0.0906372
-0.0918579
-0.0933838
-0.0941467
-0.0947571
-0.09552
-0.0953674
-0.0938416
-0.0924683
-0.0901794
-0.0883484
-0.0862122
-0.0843811
-0.0828552
-0.0814819
-0.0802612
-0.0799561
-0.0808716
-0.0820923
-0.0831604
-0.0848389
-0.0860596
-0.0875854
-0.088501
-0.0889587
-0.0889587
-0.0881958
-0.0865173
-0.0842285
-0.0822449
-0.0798035
-0.0773621
-0.0752258
-0.0733948
-0.0720215
-0.0714111
-0.0718689
-0.0726318
-0.0747681
-0.0770569
-0.0794983
-0.0828552
-0.0849915
-0.087738
-0.0900269
-0.0920105
-0.0932312
-0.0933838
-0.092926
-0.0923157
-0.0912476
-0.0900269
-0.0888062
-0.087738
-0.0872803
-0.0866699
-0.0869751
-0.0881958
-0.0895691
-0.091095
-0.0932312
-0.0946045
-0.0959778
-0.0968933
-0.0973511
-0.0976562
-0.0971985
-0.09552
-0.0941467
-0.0920105
-0.0898743
-0.0880432
-0.0863647
-0.085144
-0.0843811
-0.0839233
-0.0843811
-0.0860596
-0.0881958
-0.090332
-0.092926
-0.0959778
-0.0984192
-0.101013
-0.102997
-0.10437
-0.105286
-0.10498
-0.104065
-0.102997
-0.101318
-0.0999451
-0.0984192
-0.0968933
-0.0956726
-0.0950623
-0.0946045
-0.0949097
-0.096283
-0.0973511
-0.098877
-0.100555
-0.102081
-0.103149
-0.103912
-0.104523
-0.104828
-0.103455
-0.102081
-0.101166
-0.0996399
-0.098114
-0.0970459
-0.096283
-0.0964355
-0.0970459
-0.098114
-0.10025
-0.102997
-0.105743
-0.108337
-0.111237
-0.113678
-0.116119
-0.117645
-0.119019
-0.119171
-0.118713
-0.116882
-0.115509
-0.113525
-0.111084
-0.108948
-0.106964
-0.105133
-0.10376
-0.103302
-0.103912
-0.10498
-0.106506
-0.108337
-0.109711
-0.111694
-0.113373
-0.114288
-0.115204
-0.114746
-0.113678
-0.112
-0.109863
-0.108185
-0.106506
-0.104523
-0.103455
-0.101929
-0.101013
-0.101166
-0.101776
-0.103149
-0.10437
-0.105743
-0.107269
-0.108795
-0.109253
-0.110016
-0.109863
-0.109406
-0.107727
-0.106049
-0.103455
-0.100555
-0.098114
-0.0953674
-0.0935364
-0.0915527
-0.0901794
-0.0900269
-0.0901794
-0.0912476
-0.0926208
-0.0942993
-0.0961304
-0.098114
-0.0996399
-0.100555
-0.101166
-0.101013
-0.100403
-0.0993347
-0.0968933
-0.0952148
-0.0935364
-0.0920105
-0.0906372
-0.0894165
-0.0883484
-0.0886536
-0.0894165
-0.091095
-0.0926208
-0.0946045
-0.0961304
-0.0975037
-0.098877
-0.0997925
-0.10025
-0.0997925
-0.098114
-0.0964355
-0.0942993
-0.0917053
-0.0894165
-0.0874329
-0.085144
-0.0837708
-0.0823975
-0.0819397
-0.0823975
-0.0837708
-0.0848389
-0.085907
-0.0871277
-0.088501
-0.0892639
-0.0895691
-0.0900269
-0.0894165
-0.0878906
-0.0854492
-0.083313
-0.0805664
-0.078125
-0.0758362
-0.0737
-0.0712585
-0.0689697
-0.0686646
-0.0682068
-0.0688171
-0.0697327
-0.0704956
-0.0715637
-0.0726318
-0.0733948
-0.0740051
-0.0743103
-0.0738525
-0.0724792
-0.0704956
-0.0683594
-0.0660706
-0.0637817
-0.0622559
-0.0602722
-0.0592041
-0.0587463
-0.0585938
-0.059967
-0.0616455
-0.0631714
-0.0654602
-0.0672913
-0.0692749
-0.0706482
-0.0720215
-0.072937
-0.0727844
-0.0721741
-0.0706482
-0.0695801
-0.067749
-0.0662231
-0.065155
-0.0643921
-0.063324
-0.0628662
-0.0628662
-0.0642395
-0.0657654
-0.0675964
-0.0688171
-0.0706482
-0.0718689
-0.072937
-0.0733948
-0.0738525
-0.0733948
-0.0714111
-0.0694275
-0.0665283
-0.0637817
-0.06073
-0.0576782
-0.0552368
-0.0531006
-0.0509644
-0.0497437
-0.0495911
-0.0498962
-0.050354
-0.0511169
-0.0521851
-0.0527954
-0.052948
-0.0535583
-0.0535583
-0.0527954
-0.0506592
-0.0483704
-0.0465393
-0.0439453
-0.0424194
-0.0401306
-0.0389099
-0.0376892
-0.038147
-0.0382996
-0.0404358
-0.0424194
-0.045166
-0.0486755
-0.0517273
-0.0541687
-0.0572205
-0.0593567
-0.0613403
-0.062561
-0.0619507
-0.0614929
-0.0602722
-0.0592041
-0.057373
-0.0558472
-0.0549316
-0.0538635
-0.0534058
-0.0535583
-0.0547791
-0.0563049
-0.0590515
-0.06073
-0.0631714
-0.0656128
-0.067749
-0.0695801
-0.0717163
-0.0721741
-0.0720215
-0.0712585
-0.0706482
-0.0697327
-0.0683594
-0.0671387
-0.0669861
-0.0663757
-0.0662231
-0.0671387
-0.0680542
-0.0701904
-0.0723267
-0.0746155
-0.0764465
-0.0782776
-0.0798035
-0.0805664
-0.0811768
-0.0813293
-0.0796509
-0.0782776
-0.0765991
-0.0740051
-0.0720215
-0.0697327
-0.0682068
-0.0665283
-0.065155
-0.065155
-0.0657654
-0.0672913
-0.0688171
-0.0704956
-0.0720215
-0.0738525
-0.0752258
-0.0761414
-0.0762939
-0.0762939
-0.0753784
-0.0740051
-0.0726318
-0.0704956
-0.068512
-0.0672913
-0.0657654
-0.0650024
-0.0645447
-0.0646973
-0.0662231
-0.0683594
-0.0704956
-0.0726318
-0.0750732
-0.0773621
-0.0791931
-0.0804138
-0.0814819
-0.0819397
-0.0808716
-0.0793457
-0.0778198
-0.0756836
-0.0738525
-0.0715637
-0.0695801
-0.0686646
-0.0674438
-0.0672913
-0.0680542
-0.0694275
-0.0712585
-0.0730896
-0.0743103
-0.0761414
-0.0773621
-0.078125
-0.0784302
-0.0778198
-0.0765991
-0.0744629
-0.0721741
-0.0695801
-0.0672913
-0.0650024
-0.062561
-0.0605774
-0.0590515
-0.0585938
-0.0582886
-0.0590515
-0.0595093
-0.0604248
-0.0613403
-0.0619507
-0.0624084
-0.062561
-0.0624084
-0.0608826
-0.0585938
-0.0559998
-0.0527954
-0.0498962
-0.0466919
-0.0442505
-0.0415039
-0.0390625
-0.037384
-0.0358582
-0.0349426
-0.0341797
-0.0338745
-0.0334167
-0.0315857
-0.030365
-0.0282288
-0.025177
-0.0218201
-0.0175476
-0.0120544
-0.00701904
-0.00152588
0.00335693
0.00793457
0.0123596
0.0157166
0.0183105
0.0205994
0.0212097
0.019989
0.0183105
0.0158691
0.0128174
0.00946045
0.00564575
0.00167847
-0.00137329
-0.00411987
-0.00656128
-0.00747681
-0.00823975
-0.00762939
-0.00686646
-0.00610352
-0.00473022
-0.00396729
-0.00305176
-0.00198364
-0.00259399
-0.00350952
-0.00549316
-0.00778198
-0.010376
-0.0132751
-0.0158691
-0.0187683
-0.0215149
-0.0234985
-0.0259399
-0.0267029
-0.027771
-0.0283813
-0.0292969
-0.0302124
-0.0308228
-0.0320435
-0.0331116
-0.0337219
-0.0357056
-0.038147
-0.0404358
-0.0427246
-0.0456238
-0.04776
-0.0498962
-0.0515747
-0.0526428
-0.0532532
-0.0531006
-0.0520325
-0.050354
-0.0489807
-0.0466919
-0.0444031
-0.0430298
-0.0418091
-0.0410461
-0.0408936
-0.0418091
-0.0428772
-0.0453186
-0.0476074
-0.050354
-0.0526428
-0.0553894
-0.0570679
-0.0587463
-0.059967
-0.0601196
-0.0590515
-0.057373
-0.0556946
-0.0532532
-0.0509644
-0.0485229
-0.0463867
-0.0440979
-0.0424194
-0.0410461
-0.0405884
-0.0410461
-0.0413513
-0.0419617
-0.0422668
-0.0427246
-0.0428772
-0.0427246
-0.0422668
-0.0411987
-0.0390625
-0.0361633
-0.0328064
-0.0289917
-0.0248718
-0.019989
-0.0149536
-0.0088501
-0.00289917
0.00366211
0.0105286
0.0189209
0.0291443
0.0411987
0.0566101
0.0750732
0.0975037
0.124054
0.156403
0.193481
0.236816
0.28595
0.340424
0.400391
0.464935
0.534058
0.6073
0.681915
0.76004
0.839386
0.9198
1.00052
1.08078
1.15982
1.23596
1.30661
1.37146
1.42807
1.474
1.50909
1.53198
1.54068
1.53503
1.51352
1.47736
1.42654
1.36063
1.28159
1.19003
1.08673
0.973511
0.852509
0.725708
0.596161
0.465851
0.336151
0.210419
0.0904846
-0.0212097
-0.124054
-0.21637
-0.296936
-0.365295
-0.4216
-0.465851
-0.498657
-0.519867
-0.532074
-0.535126
-0.531006
-0.521088
-0.507355
-0.488892
-0.468445
-0.446014
-0.423584
-0.400696
-0.378571
-0.357971
-0.337982
-0.319366
-0.302429
-0.287628
-0.274811
-0.263977
-0.25528
-0.248413
-0.242767
-0.23941
-0.237427
-0.237122
-0.237732
-0.2388
-0.239716
-0.241241
-0.242004
-0.242004
-0.241394
-0.240631
-0.237579
-0.234375
-0.230255
-0.22522
-0.219879
-0.214539
-0.208893
-0.2034
-0.198669
-0.193939
-0.189514
-0.186615
-0.184021
-0.181427
-0.179138
-0.177307
-0.175018
-0.172424
-0.169525
-0.166626
-0.163116
-0.158386
-0.153351
-0.147858
-0.142975
-0.137177
-0.131836
-0.127411
-0.122833
-0.119019
-0.115814
-0.113678
-0.112152
-0.110626
-0.109711
-0.108337
-0.107269
-0.105743
-0.10376
-0.101471
-0.0984192
-0.0939941
-0.0897217
-0.0852966
-0.0802612
-0.0753784
-0.0712585
-0.0666809
-0.0628662
-0.0595093
-0.0569153
-0.0552368
-0.0544739
-0.0537109
-0.0534058
-0.0527954
-0.0523376
-0.0512695
-0.0506592
-0.0491333
-0.0473022
-0.0439453
-0.0411987
-0.0375366
-0.0338745
-0.030365
-0.0268555
-0.0234985
-0.020752
-0.0187683
-0.0172424
-0.0170898
-0.0169373
-0.017395
-0.0178528
-0.0184631
-0.0183105
-0.0183105
-0.0175476
-0.0170898
-0.0154114
-0.0125122
-0.00915527
-0.00549316
-0.00213623
0.00167847
0.00549316
0.00915527
0.0120544
0.0151062
0.0166321
0.0177002
0.018158
0.018158
0.0184631
0.0186157
0.0189209
0.0190735
0.0198364
0.0209045
0.0228882
0.0250244
0.0283813
0.0320435
0.035553
0.0393677
0.0422668
0.0456238
0.0489807
0.0518799
0.0538635
0.0547791
0.055542
0.0561523
0.0567627
0.0570679
0.0576782
0.0590515
0.0602722
0.0624084
0.065155
0.0688171
0.0730896
0.0772095
0.0816345
0.0865173
0.0909424
0.0949097
0.0987244
0.101929
0.104675
0.106049
0.10788
0.10849
0.108948
0.110016
0.110779
0.112457
0.113983
0.116119
0.119629
0.123596
0.129089
0.13382
0.139313
0.144653
0.149841
0.154877
0.159454
0.163727
0.167236
0.169983
0.172577
0.174713
0.177307
0.179596
0.18219
0.185547
0.189209
0.193024
0.198212
0.204315
0.210876
0.217896
0.224762
0.232239
0.239105
0.245819
0.25238
0.258179
0.263214
0.267334
0.270844
0.27359
0.276794
0.279388
0.28183
0.284729
0.287933
0.291138
0.294647
0.299225
0.303955
0.308838
0.313416
0.317841
0.322113
0.32608
0.328827
0.331421
0.332947
0.33371
0.333405
0.332642
0.331421
0.330048
0.328827
0.327301
0.326385
0.325165
0.325165
0.325317
0.325928
0.326233
0.326843
0.327454
0.327148
0.326385
0.32486
0.322723
0.319366
0.314789
0.310211
0.30426
0.297852
0.290222
0.283203
0.275421
0.268097
0.26001
0.252686
0.245819
0.238495
0.231323
0.223389
0.215149
0.206146
0.196381
0.185699
0.174408
0.161896
0.148163
0.133514
0.118103
0.103302
0.0874329
0.0723267
0.057373
0.0422668
0.0289917
0.0158691
0.00442505
-0.00686646
-0.0169373
-0.0267029
-0.0363159
-0.0450134
-0.0537109
-0.0627136
-0.0712585
-0.0799561
-0.0897217
-0.0990295
-0.10849
-0.117493
-0.12619
-0.134277
-0.141602
-0.148163
-0.153656
-0.158081
-0.161591
-0.164032
-0.166016
-0.168304
-0.169678
-0.171356
-0.172882
-0.174561
-0.176239
-0.178833
-0.181885
-0.185394
-0.188599
-0.191803
-0.195007
-0.197601
-0.199432
-0.201263
-0.201874
-0.202179
-0.201111
-0.19928
-0.197296
-0.194855
-0.192108
-0.189667
-0.187073
-0.185089
-0.1828
-0.182037
-0.181885
-0.181885
-0.18219
-0.182953
-0.183258
-0.183563
-0.182953
-0.182037
-0.180817
-0.17807
-0.175323
-0.171661
-0.167847
-0.163879
-0.159912
-0.156097
-0.152435
-0.149231
-0.146484
-0.144501
-0.143433
-0.14267
-0.142365
-0.142059
-0.141754
-0.141296
-0.140839
-0.139771
-0.138702
-0.136414
-0.133667
-0.129852
-0.126343
-0.122375
-0.118256
-0.114594
-0.111237
-0.10788
-0.105591
-0.103607
-0.102386
-0.102692
-0.102234
-0.102844
-0.102997
-0.102844
-0.102997
-0.102234
-0.101929
-0.100403
-0.098114
-0.0953674
-0.0927734
-0.0900269
-0.0872803
-0.0845337
-0.0820923
-0.0802612
-0.0787354
-0.078125
-0.078125
-0.0790405
-0.0796509
-0.0808716
-0.0820923
-0.0828552
-0.0834656
-0.0837708
-0.083313
-0.0822449
-0.0801086
-0.0775146
-0.0747681
-0.0714111
-0.068512
-0.0657654
-0.0630188
-0.0605774
-0.0587463
-0.057373
-0.0575256
-0.0576782
-0.0584412
-0.0593567
-0.0602722
-0.0605774
-0.0610352
-0.06073
-0.059967
-0.0585938
-0.0564575
-0.0534058
-0.0502014
-0.0465393
-0.0434875
-0.039978
-0.037384
-0.0349426
-0.0326538
-0.0318909
-0.0312805
-0.0315857
-0.0325012
-0.0334167
-0.0340271
-0.0350952
-0.0357056
-0.0358582
-0.0357056
-0.03479
-0.0328064
-0.0302124
-0.0274658
-0.0248718
-0.0218201
-0.0193787
-0.0164795
-0.0144958
-0.0126648
-0.0117493
-0.0112915
-0.0109863
-0.0114441
-0.0115967
-0.0115967
-0.0109863
-0.0109863
-0.0105286
-0.00930786
-0.00747681
-0.00411987
-0.0012207
0.00213623
0.00579834
0.00961304
0.0128174
0.015564
0.018158
0.020752
0.0218201
0.0222778
0.0219727
0.0216675
0.0209045
0.0202942
0.0198364
0.0196838
0.019989
0.0204468
0.0216675
0.0239563
0.0263977
0.0292969
0.0325012
0.0354004
0.0382996
0.0401306
0.0424194
0.0434875
0.0444031
0.0434875
0.0428772
0.0415039
0.039978
0.0386047
0.037384
0.0358582
0.0352478
0.0337219
0.0341797
0.0349426
0.0366211
0.038147
0.0393677
0.0413513
0.0428772
0.0444031
0.0456238
0.045929
0.0462341
0.0448608
0.0436401
0.0422668
0.0410461
0.0393677
0.0387573
0.0379944
0.0372314
0.0375366
0.038147
0.0396729
0.0411987
0.0434875
0.0454712
0.0476074
0.0492859
0.0511169
0.0518799
0.0527954
0.0520325
0.0508118
0.0488281
0.0469971
0.0448608
0.0424194
0.0405884
0.0393677
0.038147
0.0375366
0.0375366
0.0389099
0.0402832
0.0422668
0.0447083
0.0473022
0.0497437
0.0518799
0.0532532
0.0547791
0.0546265
0.0540161
0.0527954
0.0517273
0.0498962
0.0479126
0.0463867
0.0450134
0.0439453
0.043335
0.043335
0.0439453
0.0450134
0.0465393
0.0483704
0.0494385
0.0509644
0.0520325
0.0521851
0.0524902
0.0521851
0.0506592
0.0485229
0.0463867
0.0440979
0.0421143
0.0402832
0.0387573
0.0370789
0.0361633
0.0360107
0.0370789
0.0384521
0.0396729
0.0416565
0.043335
0.0454712
0.0469971
0.0482178
0.0494385
0.0494385
0.0489807
0.0479126
0.0468445
0.0454712
0.0442505
0.0434875
0.0428772
0.0428772
0.0437927
0.0447083
0.0469971
0.0492859
0.0520325
0.0552368
0.0578308
0.0598145
0.0614929
0.0627136
0.0637817
0.0636292
0.0627136
0.0608826
0.0588989
0.0570679
0.0544739
0.0524902
0.0511169
0.0494385
0.0485229
0.0482178
0.0491333
0.0505066
0.0521851
0.0541687
0.0558472
0.0578308
0.0595093
0.0604248
0.0614929
0.0614929
0.0611877
0.0598145
0.0584412
0.0572205
0.0556946
0.0544739
0.0538635
0.0534058
0.0532532
0.0540161
0.0556946
0.0578308
0.0601196
0.0627136
0.0650024
0.0672913
0.0695801
0.0708008
0.0721741
0.0724792
0.0723267
0.0712585
0.0698853
0.0688171
0.0675964
0.0665283
0.0656128
0.0645447
0.0642395
0.065155
0.0663757
0.0682068
0.070343
0.0726318
0.0747681
0.0767517
0.0782776
0.0796509
0.080719
0.080719
0.0798035
0.078125
0.0767517
0.0747681
0.0727844
0.0709534
0.0695801
0.068512
0.067749
0.068512
0.0694275
0.0708008
0.072937
0.0747681
0.0769043
0.0785828
0.0801086
0.0813293
0.0820923
0.0817871
0.0805664
0.0788879
0.0770569
0.0752258
0.0730896
0.0717163
0.0698853
0.0691223
0.068512
0.0680542
0.0692749
0.0708008
0.0718689
0.0735474
0.0753784
0.0767517
0.0775146
0.078125
0.0782776
0.0778198
0.0756836
0.0738525
0.0718689
0.0695801
0.0669861
0.0648499
0.0627136
0.0616455
0.0604248
0.059967
0.0605774
0.0617981
0.063324
0.0650024
0.0666809
0.0682068
0.0689697
0.0695801
0.0697327
0.0694275
0.0680542
0.065918
0.0637817
0.0611877
0.0585938
0.0563049
0.0543213
0.0526428
0.0512695
0.0506592
0.0512695
0.0523376
0.0537109
0.0550842
0.0569153
0.058136
0.0593567
0.0610352
0.0616455
0.0617981
0.0610352
0.0601196
0.0585938
0.0575256
0.0556946
0.0547791
0.0537109
0.0534058
0.0526428
0.0532532
0.0544739
0.0566101
0.0588989
0.0608826
0.0631714
0.0650024
0.0660706
0.0666809
0.0668335
0.0663757
0.0640869
0.0617981
0.0593567
0.0566101
0.0538635
0.0520325
0.0498962
0.0489807
0.0479126
0.0480652
0.0492859
0.0505066
0.052948
0.0547791
0.0572205
0.0595093
0.0610352
0.0624084
0.0634766
0.0630188
0.0628662
0.0613403
0.059967
0.0582886
0.0564575
0.0547791
0.0537109
0.0521851
0.0509644
0.0509644
0.0518799
0.0532532
0.0544739
0.0561523
0.0575256
0.0585938
0.059967
0.0604248
0.0604248
0.0596619
0.058136
0.0559998
0.0535583
0.0508118
0.0488281
0.0466919
0.0447083
0.0434875
0.042572
0.0422668
0.0428772
0.0440979
0.0457764
0.0471497
0.0485229
0.0506592
0.0515747
0.0527954
0.0532532
0.0531006
0.0520325
0.0508118
0.0491333
0.0476074
0.0457764
0.0448608
0.0436401
0.0428772
0.042572
0.0434875
0.0450134
0.0469971
0.0494385
0.0514221
0.0538635
0.0558472
0.0570679
0.0578308
0.0584412
0.0578308
0.0563049
0.0540161
0.0512695
0.0483704
0.0454712
0.042572
0.0404358
0.0387573
0.0375366
0.0366211
0.0370789
0.0375366
0.0387573
0.0396729
0.040741
0.0418091
0.0427246
0.0431824
0.0431824
0.0431824
0.0411987
0.0396729
0.0375366
0.0357056
0.0334167
0.0315857
0.030365
0.0286865
0.027771
0.0274658
0.027771
0.0288391
0.0296021
0.0309753
0.0317383
0.0320435
0.0323486
0.0318909
0.0312805
0.0294495
0.0267029
0.0239563
0.0204468
0.0169373
0.0138855
0.0105286
0.00793457
0.00534058
0.00366211
0.00259399
0.00259399
0.00335693
0.00488281
0.00564575
0.00732422
0.00869751
0.00961304
0.010376
0.0109863
0.0105286
0.00915527
0.00778198
0.00595093
0.00473022
0.00289917
0.00106812
0.000305176
-0.000457764
-0.00137329
-0.000762939
0.000610352
0.00228882
0.00457764
0.00686646
0.00900269
0.0109863
0.0126648
0.0140381
0.0151062
0.0151062
0.0143433
0.01297
0.0117493
0.00991821
0.00869751
0.00747681
0.00671387
0.00595093
0.0062561
0.00717163
0.0088501
0.0114441
0.0138855
0.0164795
0.0189209
0.0209045
0.0228882
0.0244141
0.0253296
0.0248718
0.0239563
0.0219727
0.019989
0.017395
0.0152588
0.0125122
0.010376
0.00823975
0.00671387
0.00579834
0.00549316
0.0062561
0.00717163
0.00747681
0.0088501
0.00976562
0.0102234
0.0105286
0.010376
0.00930786
0.00778198
0.00564575
0.00320435
0.000762939
-0.00152588
-0.00366211
-0.00518799
-0.0062561
-0.00701904
-0.00671387
-0.00549316
-0.00396729
-0.00183105
0.0
0.00259399
0.00427246
0.00610352
0.00747681
0.00869751
0.00854492
0.00778198
0.00656128
0.0050354
0.00366211
0.00228882
0.00152588
0.00137329
0.0012207
0.00183105
0.00350952
0.00579834
0.00946045
0.0135803
0.0175476
0.0215149
0.0260925
0.0302124
0.0343323
0.0378418
0.0404358
0.0421143
0.0439453
0.0456238
0.0468445
0.0482178
0.0500488
0.0518799
0.0537109
0.0556946
0.0585938
0.0616455
0.0648499
0.0675964
0.070343
0.0723267
0.0740051
0.0749207
0.0749207
0.0747681
0.0737
0.0718689
0.0692749
0.0663757
0.0640869
0.0617981
0.0598145
0.0582886
0.0575256
0.0578308
0.0595093
0.0621033
0.0666809
0.0714111
0.0770569
0.08255
0.0886536
0.0949097
0.101013
0.106201
0.110931
0.114288
0.11673
0.118103
0.119019
0.119019
0.118103
0.11673
0.115509
0.11261
0.110016
0.106964
0.103607
0.0993347
0.0941467
0.0878906
0.0811768
0.0737
0.065918
0.0569153
0.0474548
0.0375366
0.0265503
0.0161743
0.00610352
-0.00366211
-0.0128174
-0.020752
-0.0273132
-0.0331116
-0.0372314
-0.0402832
-0.0415039
-0.0427246
-0.0427246
-0.042572
-0.0421143
-0.0416565
-0.0419617
-0.0422668
-0.0430298
-0.0448608
-0.0471497
-0.0494385
-0.0518799
-0.0540161
-0.0566101
-0.058136
-0.0595093
-0.0598145
-0.0595093
-0.058136
-0.0561523
-0.0541687
-0.0518799
-0.0488281
-0.0469971
-0.0448608
-0.0428772
-0.0418091
-0.0408936
-0.0413513
-0.0422668
-0.0430298
-0.0444031
-0.045929
-0.0471497
-0.0480652
-0.0485229
-0.0491333
-0.0488281
-0.0473022
-0.045166
-0.0436401
-0.0413513
-0.0398254
-0.0379944
-0.0370789
-0.0358582
-0.03479
-0.0349426
-0.0357056
-0.0372314
-0.0386047
-0.0402832
-0.0415039
-0.0428772
-0.0437927
-0.0442505
-0.0442505
-0.0439453
-0.0424194
-0.040741
-0.0389099
-0.0369263
-0.03479
-0.0323486
-0.0294495
-0.0265503
-0.0233459
-0.0195312
-0.0161743
-0.0123596
-0.00701904
-0.000457764
0.00823975
0.0192261
0.0337219
0.0517273
0.0733948
0.10025
0.132599
0.170593
0.214233
0.262756
0.316925
0.376282
0.439911
0.508118
0.579376
0.653229
0.728912
0.807648
0.887146
0.968018
1.04828
1.12747
1.20438
1.27655
1.34247
1.40015
1.44806
1.48422
1.50757
1.51611
1.50955
1.48773
1.45035
1.39816
1.33133
1.25107
1.15768
1.05362
0.940552
0.82016
0.69519
0.566711
0.439148
0.312653
0.190735
0.0753784
-0.032196
-0.130005
-0.218506
-0.295563
-0.360718
-0.414886
-0.457153
-0.488586
-0.509644
-0.521851
-0.526428
-0.523987
-0.5159
-0.503235
-0.486755
-0.467682
-0.447083
-0.426025
-0.404968
-0.384369
-0.364685
-0.346069
-0.329742
-0.314789
-0.30304
-0.293274
-0.285339
-0.279541
-0.276031
-0.274048
-0.2742
-0.275726
-0.277252
-0.279388
-0.281525
-0.283508
-0.284576
-0.285492
-0.285645
-0.284119
-0.281677
-0.278015
-0.2742
-0.269775
-0.26474
-0.260162
-0.255432
-0.25116
-0.247345
-0.244446
-0.241852
-0.240173
-0.238037
-0.236359
-0.234222
-0.232697
-0.230408
-0.228119
-0.22522
-0.22171
-0.217743
-0.213013
-0.208282
-0.203705
-0.199127
-0.194397
-0.19043
-0.186768
-0.183411
-0.181122
-0.179596
-0.17868
-0.177917
-0.176849
-0.175934
-0.174866
-0.17334
-0.171661
-0.168762
-0.166016
-0.162048
-0.157623
-0.15274
-0.14801
-0.143585
-0.138855
-0.134888
-0.131226
-0.128632
-0.126801
-0.125885
-0.125275
-0.124969
-0.125122
-0.125122
-0.125427
-0.124969
-0.124207
-0.123291
-0.121002
-0.118408
-0.115204
-0.111389
-0.108032
-0.104218
-0.101013
-0.0971985
-0.0946045
-0.0918579
-0.0906372
-0.0894165
-0.0894165
-0.0886536
-0.0888062
-0.0889587
-0.088501
-0.0878906
-0.0865173
-0.0848389
-0.0823975
-0.0790405
-0.075531
-0.0717163
-0.0679016
-0.0637817
-0.0601196
-0.0567627
-0.0534058
-0.0505066
-0.0486755
-0.0473022
-0.0466919
-0.0462341
-0.0456238
-0.0450134
-0.0442505
-0.0430298
-0.0415039
-0.0389099
-0.0360107
-0.0320435
-0.0276184
-0.0230408
-0.0180054
-0.0132751
-0.00869751
-0.00473022
-0.000915527
0.00213623
0.00411987
0.00564575
0.00656128
0.00686646
0.00732422
0.00793457
0.00808716
0.00869751
0.00961304
0.0109863
0.0132751
0.0157166
0.0195312
0.0233459
0.0267029
0.0306702
0.0341797
0.037384
0.0401306
0.0428772
0.0445557
0.0453186
0.0460815
0.0469971
0.0473022
0.0480652
0.0489807
0.0508118
0.0531006
0.0563049
0.059967
0.0650024
0.070343
0.0761414
0.0816345
0.0874329
0.093689
0.0990295
0.103912
0.108795
0.112762
0.115204
0.11795
0.120392
0.122681
0.124817
0.127716
0.130463
0.133514
0.136719
0.141296
0.14679
0.152435
0.158386
0.164795
0.171204
0.177307
0.1828
0.188446
0.193176
0.197144
0.200958
0.204163
0.206909
0.209656
0.212708
0.215302
0.218811
0.222626
0.226746
0.231934
0.237579
0.243378
0.249329
0.25528
0.261383
0.266724
0.271606
0.275574
0.279083
0.281372
0.282745
0.283203
0.282745
0.282898
0.281982
0.281219
0.281067
0.280762
0.280304
0.281067
0.28183
0.282593
0.283508
0.284119
0.284271
0.284271
0.282898
0.281067
0.27832
0.274353
0.269012
0.262604
0.255737
0.248566
0.240479
0.232391
0.223999
0.216064
0.207672
0.200195
0.192871
0.185547
0.178375
0.171051
0.163727
0.155029
0.146484
0.137482
0.127716
0.116882
0.10437
0.0921631
0.0788879
0.0656128
0.0523376
0.0393677
0.0268555
0.0141907
0.00167847
-0.00961304
-0.0196838
-0.0292969
-0.0389099
-0.0482178
-0.0572205
-0.0662231
-0.0756836
-0.0846863
-0.0941467
-0.104675
-0.115356
-0.125885
-0.136566
-0.146942
-0.156555
-0.16571
-0.17395
-0.181885
-0.189056
-0.194397
-0.198822
-0.202484
-0.205688
-0.208435
-0.211029
-0.213623
-0.216675
-0.218964
-0.221558
-0.225372
-0.22934
-0.233459
-0.237579
-0.241547
-0.244904
-0.24826
-0.251617
-0.253448
-0.254974
-0.25528
-0.254669
-0.253601
-0.251923
-0.249481
-0.247955
-0.246124
-0.243988
-0.242615
-0.241394
-0.241241
-0.241394
-0.242004
-0.242615
-0.243378
-0.243988
-0.244293
-0.244141
-0.243683
-0.242462
-0.240021
-0.236816
-0.233612
-0.229187
-0.225677
-0.22171
-0.217743
-0.214539
-0.211334
-0.20874
-0.207062
-0.206299
-0.205841
-0.205536
-0.205841
-0.205383
-0.205078
-0.204468
-0.203857
-0.202789
-0.200806
-0.197449
-0.194855
-0.191345
-0.187988
-0.184784
-0.181732
-0.178986
-0.176849
-0.175171
-0.174255
-0.174255
-0.174866
-0.175476
-0.176239
-0.177002
-0.177155
-0.177155
-0.177155
-0.176239
-0.174408
-0.171661
-0.16861
-0.164795
-0.161133
-0.157318
-0.153809
-0.150299
-0.147247
-0.144806
-0.142517
-0.141144
-0.140686
-0.139618
-0.139313
-0.13855
-0.137787
-0.136108
-0.134277
-0.132294
-0.128632
-0.125122
-0.121002
-0.116882
-0.112762
-0.10849
-0.104218
-0.100861
-0.0975037
-0.0949097
-0.0932312
-0.0921631
-0.0915527
-0.091095
-0.0915527
-0.0914001
-0.0914001
-0.090332
-0.0895691
-0.0880432
-0.0856018
-0.08255
-0.0787354
-0.075531
-0.0709534
-0.0671387
-0.0640869
-0.0608826
-0.0584412
-0.0567627
-0.0556946
-0.0556946
-0.0564575
-0.0572205
-0.0579834
-0.0588989
-0.0595093
-0.0595093
-0.0598145
-0.0592041
-0.0575256
-0.0549316
-0.0517273
-0.0488281
-0.0457764
-0.0427246
-0.0393677
-0.0370789
-0.0349426
-0.032959
-0.0318909
-0.0318909
-0.0323486
-0.0332642
-0.0338745
-0.0350952
-0.0358582
-0.0361633
-0.0366211
-0.0366211
-0.0358582
-0.0340271
-0.0320435
-0.0296021
-0.0273132
-0.025177
-0.0233459
-0.0215149
-0.0198364
-0.0192261
-0.0195312
-0.019989
-0.0212097
-0.0228882
-0.0245667
-0.0253296
-0.0263977
-0.0270081
-0.0273132
-0.0276184
-0.0260925
-0.0242615
-0.0219727
-0.0193787
-0.0169373
-0.0146484
-0.0125122
-0.0108337
-0.00961304
-0.00930786
-0.00946045
-0.0111389
-0.01297
-0.0149536
-0.0177002
-0.0193787
-0.0222778
-0.0238037
-0.0253296
-0.0262451
-0.0263977
-0.0256348
-0.0239563
-0.022583
-0.0212097
-0.0187683
-0.017395
-0.0157166
-0.0141907
-0.0132751
-0.0128174
-0.0132751
-0.0141907
-0.015564
-0.0166321
-0.0180054
-0.0190735
-0.019989
-0.0204468
-0.020752
-0.0195312
-0.0183105
-0.0167847
-0.0146484
-0.0126648
-0.0109863
-0.00961304
-0.00823975
-0.00762939
-0.00732422
-0.00823975
-0.010376
-0.0120544
-0.0141907
-0.0164795
-0.0184631
-0.0204468
-0.0218201
-0.0227356
-0.0230408
-0.0224304
-0.0210571
-0.0190735
-0.017395
-0.0154114
-0.0132751
-0.0119019
-0.0106812
-0.00946045
-0.00930786
-0.0102234
-0.0114441
-0.0134277
-0.0154114
-0.0175476
-0.0196838
-0.0213623
-0.0230408
-0.0234985
-0.0242615
-0.0236511
-0.0221252
-0.0205994
-0.0178528
-0.0157166
-0.0135803
-0.0111389
-0.00946045
-0.00778198
-0.00732422
-0.00747681
-0.00869751
-0.0100708
-0.0120544
-0.0132751
-0.015564
-0.0167847
-0.0184631
-0.0192261
-0.0202942
-0.0201416
-0.0190735
-0.0177002
-0.0160217
-0.0138855
-0.0123596
-0.0105286
-0.00961304
-0.0088501
-0.00823975
-0.00900269
-0.00976562
-0.0112915
-0.01297
-0.0146484
-0.0161743
-0.0177002
-0.0184631
-0.0190735
-0.0193787
-0.018158
-0.0169373
-0.0151062
-0.0128174
-0.0106812
-0.00823975
-0.0062561
-0.00442505
-0.00320435
-0.00183105
-0.00198364
-0.00274658
-0.00411987
-0.00488281
-0.00640869
-0.00808716
-0.00915527
-0.00976562
-0.0100708
-0.0100708
-0.00900269
-0.00747681
-0.00457764
-0.00244141
-0.000152588
0.00213623
0.0038147
0.00534058
0.00656128
0.00671387
0.00640869
0.0050354
0.00274658
0.000762939
-0.00167847
-0.00442505
-0.00671387
-0.00823975
-0.00915527
-0.00991821
-0.00946045
-0.00823975
-0.00640869
-0.00427246
-0.00167847
0.000610352
0.00305176
0.00488281
0.00656128
0.00839233
0.00869751
0.0088501
0.00823975
0.00747681
0.00717163
0.00595093
0.00564575
0.00534058
0.00518799
0.00488281
0.00595093
0.00808716
0.00991821
0.0120544
0.0141907
0.0163269
0.0178528
0.0192261
0.019989
0.0204468
0.0202942
0.0187683
0.0170898
0.0151062
0.0134277
0.0114441
0.00976562
0.00808716
0.00762939
0.00747681
0.00762939
0.00869751
0.010376
0.0123596
0.0140381
0.0152588
0.017395
0.0180054
0.0184631
0.0187683
0.0175476
0.0157166
0.0135803
0.0111389
0.0088501
0.00610352
0.00396729
0.00259399
0.00137329
0.000762939
0.00106812
0.00244141
0.00411987
0.00656128
0.0088501
0.0106812
0.0128174
0.0143433
0.0152588
0.0160217
0.0158691
0.014801
0.0134277
0.0115967
0.00961304
0.00808716
0.00686646
0.00549316
0.00457764
0.0038147
0.00442505
0.00564575
0.00717163
0.00869751
0.0108337
0.0120544
0.0135803
0.0151062
0.0154114
0.0157166
0.0151062
0.0137329
0.012207
0.00991821
0.00808716
0.00595093
0.00396729
0.00274658
0.00183105
0.0012207
0.00167847
0.00305176
0.00488281
0.00686646
0.00900269
0.0108337
0.0126648
0.0141907
0.0152588
0.0154114
0.0157166
0.0146484
0.0131226
0.0111389
0.00946045
0.00762939
0.00610352
0.00488281
0.00350952
0.00320435
0.00366211
0.00442505
0.00579834
0.00762939
0.00915527
0.0108337
0.012207
0.01297
0.0132751
0.0132751
0.0119019
0.0100708
0.00778198
0.00518799
0.00274658
0.000152588
-0.00198364
-0.0038147
-0.00549316
-0.0062561
-0.00595093
-0.00473022
-0.00350952
-0.00152588
0.000152588
0.00198364
0.00335693
0.00488281
0.00610352
0.00671387
0.00640869
0.00518799
0.0038147
0.00228882
0.000457764
-0.00106812
-0.00259399
-0.00366211
-0.00427246
-0.00473022
-0.0038147
-0.00259399
-0.000762939
0.00106812
0.00289917
0.0050354
0.00656128
0.00823975
0.00869751
0.00915527
0.00839233
0.00686646
0.0050354
0.00335693
0.00106812
-0.000915527
-0.00305176
-0.00411987
-0.00534058
-0.00595093
-0.00549316
-0.00457764
-0.00320435
-0.0012207
0.000610352
0.00259399
0.0038147
0.00518799
0.00564575
0.00610352
0.00534058
0.00366211
0.00198364
-0.000152588
-0.00259399
-0.00442505
-0.00579834
-0.00762939
-0.00869751
-0.00900269
-0.00930786
-0.00808716
-0.00686646
-0.00534058
-0.00366211
-0.00213623
-0.0012207
-0.000457764
0.000152588
0.000305176
-0.000457764
-0.00183105
-0.00396729
-0.00595093
-0.00793457
-0.0100708
-0.0112915
-0.0125122
-0.0131226
-0.0131226
-0.0120544
-0.0105286
-0.00793457
-0.00564575
-0.00320435
-0.000305176
0.00167847
0.00366211
0.0050354
0.00564575
0.00595093
0.00518799
0.00335693
0.00198364
0.000457764
-0.00152588
-0.00335693
-0.00427246
-0.00534058
-0.00534058
-0.00473022
-0.00366211
-0.00228882
-0.000762939
0.00106812
0.00228882
0.0038147
0.00473022
0.00549316
0.00564575
0.00442505
0.00274658
0.00106812
-0.00137329
-0.00350952
-0.00549316
-0.00747681
-0.0088501
-0.00976562
-0.010376
-0.00961304
-0.00839233
-0.00640869
-0.00396729
-0.00228882
-0.000305176
0.00152588
0.00305176
0.00366211
0.00427246
0.00366211
0.00259399
0.000915527
-0.00106812
-0.00274658
-0.00411987
-0.00595093
-0.00717163
-0.00808716
-0.00793457
-0.00671387
-0.00518799
-0.00350952
-0.000915527
0.00137329
0.0038147
0.00610352
0.00823975
0.00991821
0.0111389
0.0111389
0.0105286
0.00930786
0.00793457
0.00671387
0.00518799
0.00366211
0.00305176
0.00259399
0.00228882
0.00305176
0.00411987
0.00595093
0.00778198
0.00991821
0.0115967
0.0132751
0.0141907
0.0149536
0.0151062
0.0143433
0.0128174
0.0109863
0.00930786
0.00701904
0.00488281
0.00335693
0.00213623
0.0012207
0.0012207
0.00152588
0.00289917
0.00518799
0.00701904
0.0088501
0.0111389
0.0134277
0.0143433
0.0152588
0.0161743
0.0161743
0.0143433
0.0134277
0.0117493
0.0105286
0.00900269
0.00762939
0.00656128
0.00595093
0.00564575
0.00656128
0.00793457
0.0102234
0.0125122
0.0154114
0.018158
0.0209045
0.0239563
0.0263977
0.0286865
0.0308228
0.0318909
0.0328064
0.0332642
0.0343323
0.0357056
0.0372314
0.0389099
0.0404358
0.0431824
0.0468445
0.0512695
0.0556946
0.0605774
0.0650024
0.0689697
0.0726318
0.075531
0.0779724
0.0791931
0.0790405
0.078125
0.0764465
0.0741577
0.0720215
0.0694275
0.0674438
0.0662231
0.0648499
0.0646973
0.0654602
0.0672913
0.0692749
0.0717163
0.0747681
0.0779724
0.0811768
0.0843811
0.0883484
0.0918579
0.0944519
0.096283
0.0990295
0.101471
0.10376
0.105896
0.108337
0.110779
0.113068
0.115662
0.118256
0.121613
0.124512
0.126495
0.128479
0.128937
0.128784
0.126953
0.124207
0.119934
0.113525
0.106201
0.0978088
0.0883484
0.0788879
0.0694275
0.0601196
0.0508118
0.0427246
0.0350952
0.0283813
0.0230408
0.0184631
0.0141907
0.0106812
0.00732422
0.00427246
0.00137329
-0.00183105
-0.00534058
-0.00915527
-0.0131226
-0.017395
-0.0216675
-0.0254822
-0.0296021
-0.0326538
-0.0354004
-0.0378418
-0.0396729
-0.040741
-0.0404358
-0.0404358
-0.039978
-0.0393677
-0.0389099
-0.0382996
-0.0382996
-0.0379944
-0.0386047
-0.0401306
-0.0422668
-0.0444031
-0.0462341
-0.0486755
-0.0508118
-0.0526428
-0.0538635
-0.0546265
-0.0550842
-0.0543213
-0.052948
-0.0511169
-0.0488281
-0.0466919
-0.0444031
-0.0427246
-0.0408936
-0.0398254
-0.0393677
-0.0395203
-0.040741
-0.0421143
-0.0436401
-0.0448608
-0.0466919
-0.0480652
-0.0482178
-0.0486755
-0.0483704
-0.0474548
-0.0453186
-0.043335
-0.0401306
-0.0375366
-0.0344849
-0.0318909
-0.0297546
-0.0282288
-0.0268555
-0.0267029
-0.0270081
-0.0271606
-0.0273132
-0.0265503
-0.0244141
-0.0212097
-0.0169373
-0.0108337
-0.00305176
0.00732422
0.0201416
0.0352478
0.0523376
0.0735474
0.0976562
0.12558
0.157623
0.193939
0.23468
0.279388
0.329132
0.383606
0.443268
0.507355
0.575409
0.647736
0.723114
0.801849
0.883179
0.966187
1.05118
1.1351
1.21735
1.29547
1.36719
1.43066
1.48422
1.52512
1.55243
1.56509
1.56204
1.54312
1.50894
1.46027
1.39679
1.32034
1.2323
1.13281
1.02386
0.908966
0.787811
0.664673
0.539246
0.415802
0.293732
0.177002
0.0663757
-0.0358582
-0.130615
-0.214691
-0.289307
-0.352325
-0.403595
-0.443573
-0.472107
-0.49057
-0.499725
-0.500641
-0.49408
-0.481262
-0.463867
-0.443573
-0.421753
-0.39917
-0.376282
-0.354919
-0.334625
-0.316467
-0.301514
-0.288849
-0.279236
-0.271759
-0.267181
-0.263214
-0.261536
-0.260773
-0.260468
-0.26062
-0.26062
-0.26001
-0.258789
-0.257416
-0.255432
-0.253296
-0.251312
-0.248566
-0.246887
-0.245209
-0.24353
-0.243073
-0.24231
-0.242004
-0.241852
-0.241089
-0.240326
-0.238953
-0.237579
-0.235138
-0.233154
-0.229492
-0.225372
-0.220642
-0.216217
-0.211334
-0.207062
-0.202179
-0.198517
-0.194702
-0.191956
-0.189819
-0.188751
-0.187225
-0.186768
-0.185089
-0.184479
-0.1828
-0.181274
-0.179291
-0.176392
-0.172424
-0.167542
-0.162659
-0.157318
-0.152435
-0.147095
-0.142059
-0.137787
-0.133514
-0.130157
-0.128174
-0.12619
-0.124969
-0.124207
-0.123596
-0.123291
-0.122375
-0.121613
-0.120544
-0.118866
-0.116425
-0.113525
-0.110474
-0.106812
-0.103455
-0.10025
-0.0970459
-0.0947571
-0.0923157
-0.0906372
-0.0900269
-0.0900269
-0.0901794
-0.0904846
-0.0909424
-0.091095
-0.091095
-0.0900269
-0.0891113
-0.0872803
-0.0845337
-0.0810242
-0.0770569
-0.072937
-0.0686646
-0.0645447
-0.0604248
-0.0576782
-0.0546265
-0.0524902
-0.0517273
-0.0518799
-0.0524902
-0.0532532
-0.0541687
-0.0556946
-0.0570679
-0.0576782
-0.0584412
-0.0584412
-0.058136
-0.0564575
-0.0550842
-0.0531006
-0.050354
-0.0480652
-0.0454712
-0.0434875
-0.0415039
-0.0401306
-0.0398254
-0.0395203
-0.039978
-0.0401306
-0.0401306
-0.0401306
-0.0396729
-0.0386047
-0.0372314
-0.035553
-0.0325012
-0.0291443
-0.025177
-0.0212097
-0.0175476
-0.0134277
-0.00991821
-0.00701904
-0.00411987
-0.00213623
-0.000762939
-0.000305176
0.0
-0.000305176
-0.000305176
-0.000305176
0.0
0.000762939
0.00152588
0.00350952
0.00595093
0.00976562
0.0132751
0.0178528
0.0222778
0.0268555
0.0311279
0.0349426
0.0389099
0.0418091
0.0440979
0.0457764
0.0476074
0.0486755
0.0505066
0.0524902
0.0541687
0.0569153
0.059967
0.0636292
0.068512
0.0738525
0.0794983
0.0854492
0.0915527
0.0975037
0.103302
0.108337
0.113068
0.117493
0.120544
0.123138
0.125427
0.127411
0.129547
0.131378
0.133972
0.136261
0.13916
0.142975
0.147552
0.152893
0.158234
0.163879
0.169373
0.175018
0.180054
0.184937
0.189362
0.192413
0.195007
0.196381
0.197449
0.198212
0.198212
0.198517
0.19928
0.19989
0.200348
0.201263
0.202942
0.205536
0.208435
0.210266
0.212555
0.214691
0.215912
0.216522
0.216675
0.215912
0.214081
0.210876
0.207214
0.203552
0.19928
0.19455
0.190125
0.185547
0.181274
0.177002
0.173035
0.169983
0.166626
0.163269
0.159149
0.154877
0.149689
0.14389
0.137177
0.129242
0.120392
0.110016
0.0994873
0.0878906
0.0759888
0.0640869
0.0517273
0.0398254
0.0274658
0.0151062
0.00396729
-0.00640869
-0.0169373
-0.0273132
-0.0379944
-0.0482178
-0.0593567
-0.0706482
-0.0820923
-0.0941467
-0.106812
-0.119934
-0.132599
-0.145874
-0.158386
-0.170441
-0.181427
-0.192108
-0.201416
-0.209961
-0.21698
-0.222168
-0.227509
-0.231628
-0.235291
-0.238342
-0.241089
-0.243988
-0.246582
-0.249023
-0.252533
-0.256042
-0.259399
-0.263367
-0.266571
-0.26947
-0.272064
-0.273895
-0.275269
-0.275726
-0.274811
-0.27359
-0.271454
-0.26886
-0.266113
-0.263672
-0.26123
-0.259247
-0.257263
-0.256042
-0.255585
-0.256042
-0.256958
-0.257263
-0.258179
-0.259247
-0.259399
-0.259552
-0.259094
-0.258331
-0.256348
-0.253754
-0.251007
-0.247803
-0.244751
-0.241089
-0.238342
-0.235748
-0.233307
-0.231323
-0.230408
-0.230255
-0.22995
-0.22995
-0.230255
-0.230103
-0.22934
-0.228271
-0.226746
-0.225067
-0.222321
-0.218353
-0.214386
-0.210419
-0.206604
-0.203705
-0.200043
-0.197449
-0.195312
-0.193939
-0.193939
-0.194397
-0.195312
-0.196533
-0.197754
-0.198822
-0.19989
-0.200653
-0.200958
-0.200653
-0.199585
-0.197601
-0.195465
-0.192719
-0.190582
-0.187836
-0.185242
-0.183258
-0.180969
-0.179749
-0.179291
-0.179901
-0.180054
-0.180817
-0.181122
-0.181885
-0.182037
-0.18158
-0.181122
-0.179749
-0.177612
-0.174561
-0.171509
-0.168304
-0.165405
-0.162354
-0.159149
-0.157166
-0.155334
-0.154419
-0.154419
-0.154877
-0.155945
-0.157318
-0.158386
-0.15976
-0.161285
-0.161896
-0.162201
-0.161896
-0.16037
-0.158081
-0.15564
-0.152893
-0.149994
-0.146942
-0.144501
-0.141907
-0.139618
-0.138092
-0.138245
-0.137939
-0.138245
-0.13855
-0.13916
-0.139771
-0.140076
-0.139771
-0.139618
-0.13855
-0.137177
-0.134277
-0.131989
-0.129242
-0.126343
-0.124054
-0.121765
-0.119934
-0.118256
-0.11795
-0.11795
-0.119019
-0.120239
-0.12146
-0.122986
-0.124207
-0.125275
-0.125732
-0.126038
-0.125275
-0.123749
-0.12146
-0.118713
-0.115967
-0.113068
-0.110168
-0.10788
-0.105591
-0.104218
-0.10376
-0.103607
-0.104065
-0.105438
-0.106812
-0.10849
-0.109711
-0.111237
-0.112152
-0.11261
-0.11261
-0.112152
-0.110474
-0.108185
-0.106049
-0.103912
-0.100861
-0.0994873
-0.0982666
-0.0965881
-0.096283
-0.0964355
-0.0971985
-0.0985718
-0.0997925
-0.101471
-0.102386
-0.103302
-0.10376
-0.104218
-0.103607
-0.102539
-0.100708
-0.0982666
-0.0964355
-0.0941467
-0.0923157
-0.090332
-0.0888062
-0.087738
-0.0875854
-0.0881958
-0.0894165
-0.0909424
-0.0932312
-0.0947571
-0.0965881
-0.0984192
-0.0993347
-0.100555
-0.100708
-0.10025
-0.0987244
-0.0971985
-0.09552
-0.0941467
-0.0918579
-0.0904846
-0.0894165
-0.0889587
-0.0894165
-0.0900269
-0.0920105
-0.0935364
-0.0958252
-0.0976562
-0.0997925
-0.101624
-0.102844
-0.103455
-0.10376
-0.102692
-0.101166
-0.0993347
-0.0971985
-0.0950623
-0.0927734
-0.0915527
-0.090332
-0.0895691
-0.0894165
-0.0901794
-0.0914001
-0.092926
-0.0949097
-0.0964355
-0.0984192
-0.0997925
-0.100708
-0.101166
-0.101013
-0.0999451
-0.0984192
-0.096283
-0.0938416
-0.0920105
-0.0901794
-0.088501
-0.0869751
-0.0866699
-0.0860596
-0.0868225
-0.0891113
-0.0904846
-0.092926
-0.0952148
-0.0970459
-0.0996399
-0.101166
-0.101929
-0.102539
-0.102081
-0.100708
-0.0991821
-0.0973511
-0.0958252
-0.0939941
-0.0926208
-0.0914001
-0.0909424
-0.090332
-0.0914001
-0.0927734
-0.0946045
-0.0968933
-0.0987244
-0.101013
-0.102844
-0.10437
-0.105286
-0.105896
-0.105591
-0.104523
-0.103455
-0.101929
-0.100098
-0.0985718
-0.0971985
-0.0959778
-0.0953674
-0.0950623
-0.0961304
-0.0971985
-0.0987244
-0.100708
-0.102081
-0.103912
-0.10498
-0.105591
-0.106201
-0.105743
-0.104523
-0.102692
-0.100403
-0.098114
-0.0956726
-0.0933838
-0.0914001
-0.0895691
-0.0886536
-0.0881958
-0.0888062
-0.0901794
-0.0918579
-0.0935364
-0.0958252
-0.0978088
-0.0990295
-0.100403
-0.101166
-0.101776
-0.100555
-0.0996399
-0.0979614
-0.0961304
-0.0946045
-0.092926
-0.091095
-0.090332
-0.0895691
-0.0895691
-0.0909424
-0.0920105
-0.093689
-0.0958252
-0.0975037
-0.0990295
-0.100555
-0.101318
-0.101776
-0.101013
-0.0993347
-0.0976562
-0.0944519
-0.0914001
-0.0883484
-0.0852966
-0.0823975
-0.0799561
-0.0779724
-0.0761414
-0.0758362
-0.0756836
-0.0759888
-0.0765991
-0.0773621
-0.078125
-0.0785828
-0.0791931
-0.0793457
-0.0790405
-0.078125
-0.0765991
-0.0743103
-0.0724792
-0.0708008
-0.0691223
-0.067749
-0.0668335
-0.0665283
-0.0668335
-0.0680542
-0.0700378
-0.0721741
-0.0743103
-0.0770569
-0.0790405
-0.0808716
-0.0822449
-0.0830078
-0.0830078
-0.0817871
-0.0799561
-0.078125
-0.075531
-0.0727844
-0.0704956
-0.0680542
-0.0671387
-0.0648499
-0.0642395
-0.0648499
-0.065155
-0.0665283
-0.0682068
-0.0697327
-0.0714111
-0.0726318
-0.0733948
-0.0740051
-0.0741577
-0.072937
-0.0715637
-0.0694275
-0.0674438
-0.0653076
-0.0631714
-0.0619507
-0.06073
-0.0592041
-0.0588989
-0.0593567
-0.06073
-0.0622559
-0.0634766
-0.0653076
-0.0665283
-0.0674438
-0.0682068
-0.0686646
-0.0680542
-0.0671387
-0.065155
-0.0634766
-0.0613403
-0.0592041
-0.0570679
-0.0553894
-0.0538635
-0.0531006
-0.0524902
-0.0534058
-0.0546265
-0.0561523
-0.0579834
-0.0595093
-0.0611877
-0.0631714
-0.0640869
-0.0646973
-0.0643921
-0.0634766
-0.0621033
-0.0596619
-0.0575256
-0.0552368
-0.0532532
-0.0515747
-0.0497437
-0.0488281
-0.0483704
-0.0489807
-0.0498962
-0.0514221
-0.0524902
-0.0544739
-0.0558472
-0.0570679
-0.0576782
-0.0585938
-0.0579834
-0.0567627
-0.0549316
-0.052948
-0.0508118
-0.0485229
-0.0466919
-0.0453186
-0.0439453
-0.043335
-0.0431824
-0.0440979
-0.045929
-0.04776
-0.0498962
-0.0518799
-0.0540161
-0.0553894
-0.0567627
-0.0575256
-0.0576782
-0.0567627
-0.0552368
-0.0527954
-0.0506592
-0.0486755
-0.0463867
-0.0442505
-0.0427246
-0.0411987
-0.0408936
-0.0410461
-0.0422668
-0.0434875
-0.045166
-0.0465393
-0.0482178
-0.0489807
-0.0497437
-0.0506592
-0.0495911
-0.0485229
-0.0466919
-0.0447083
-0.0424194
-0.0395203
-0.0376892
-0.0360107
-0.0343323
-0.0335693
-0.0334167
-0.0340271
-0.0354004
-0.037384
-0.0389099
-0.0408936
-0.0428772
-0.0444031
-0.0457764
-0.0466919
-0.0471497
-0.0466919
-0.045166
-0.043335
-0.0418091
-0.0401306
-0.0384521
-0.0370789
-0.0357056
-0.03479
-0.0350952
-0.0357056
-0.037384
-0.0389099
-0.0404358
-0.0428772
-0.0448608
-0.0463867
-0.0479126
-0.0488281
-0.0492859
-0.0486755
-0.0474548
-0.045929
-0.0440979
-0.0427246
-0.0413513
-0.039978
-0.0396729
-0.0392151
-0.0396729
-0.0411987
-0.043335
-0.045929
-0.0479126
-0.050354
-0.0524902
-0.0549316
-0.0561523
-0.0575256
-0.0578308
-0.057373
-0.0564575
-0.0550842
-0.0532532
-0.0518799
-0.0506592
-0.0492859
-0.0486755
-0.0483704
-0.0488281
-0.0502014
-0.0523376
-0.0546265
-0.0572205
-0.0598145
-0.0619507
-0.0640869
-0.0662231
-0.0675964
-0.0680542
-0.0672913
-0.0666809
-0.0656128
-0.0639343
-0.0619507
-0.0605774
-0.0593567
-0.058136
-0.0576782
-0.0576782
-0.058136
-0.0598145
-0.0617981
-0.063324
-0.065155
-0.0666809
-0.0674438
-0.0683594
-0.0689697
-0.0689697
-0.0675964
-0.0660706
-0.0640869
-0.0619507
-0.0596619
-0.0575256
-0.0556946
-0.0543213
-0.0537109
-0.0531006
-0.0538635
-0.0552368
-0.0570679
-0.0588989
-0.0605774
-0.0622559
-0.0637817
-0.0648499
-0.0657654
-0.0656128
-0.0648499
-0.0631714
-0.0616455
-0.0590515
-0.0567627
-0.0546265
-0.0524902
-0.0506592
-0.0495911
-0.0488281
-0.0488281
-0.0502014
-0.0511169
-0.0521851
-0.0535583
-0.0541687
-0.0543213
-0.0543213
-0.0538635
-0.0526428
-0.0505066
-0.0482178
-0.0450134
-0.0418091
-0.0390625
-0.0360107
-0.0331116
-0.0311279
-0.0291443
-0.0280762
-0.027771
-0.0282288
-0.0286865
-0.0292969
-0.0300598
-0.0299072
-0.0302124
-0.030365
-0.0299072
-0.0283813
-0.0265503
-0.0239563
-0.0210571
-0.0180054
-0.014801
-0.0119019
-0.00915527
-0.00701904
-0.00457764
-0.00350952
-0.00274658
-0.00259399
-0.00274658
-0.00289917
-0.00289917
-0.00289917
-0.00183105
-0.0012207
0.000457764
0.00289917
0.00656128
0.0106812
0.0149536
0.0196838
0.0242615
0.0289917
0.0328064
0.0364685
0.0396729
0.0415039
0.0431824
0.042572
0.042572
0.0418091
0.0402832
0.0393677
0.037384
0.0363159
0.0350952
0.0346375
0.0352478
0.0364685
0.0376892
0.0393677
0.040741
0.0422668
0.0442505
0.0453186
0.0471497
0.0480652
0.0489807
0.0498962
0.0508118
0.0526428
0.0546265
0.0570679
0.0604248
0.0648499
0.0694275
0.0750732
0.0810242
0.0875854
0.0935364
0.0994873
0.104523
0.108795
0.111542
0.112915
0.113831
0.112762
0.109711
0.10498
0.098877
0.0912476
0.0830078
0.0740051
0.0646973
0.0549316
0.0454712
0.0372314
0.0292969
0.0221252
0.0152588
0.00900269
0.00259399
-0.00289917
-0.00839233
-0.0137329
-0.0192261
-0.0253296
-0.0309753
-0.0376892
-0.0437927
-0.0492859
-0.0547791
-0.0598145
-0.0640869
-0.0679016
-0.071106
-0.0730896
-0.0740051
-0.0740051
-0.0735474
-0.0730896
-0.0723267
-0.0712585
-0.070343
-0.0697327
-0.0692749
-0.0691223
-0.0701904
-0.0714111
-0.0730896
-0.0746155
-0.0759888
-0.0772095
-0.0776672
-0.0782776
-0.0782776
-0.0775146
-0.0761414
-0.0737
-0.0714111
-0.0683594
-0.0656128
-0.063324
-0.0610352
-0.0593567
-0.0579834
-0.0570679
-0.0576782
-0.0584412
-0.059967
-0.0611877
-0.062561
-0.0634766
-0.0642395
-0.0642395
-0.0642395
-0.0634766
-0.0614929
-0.0588989
-0.0558472
-0.0526428
-0.0495911
-0.0462341
-0.043335
-0.0413513
-0.0396729
-0.0390625
-0.0396729
-0.040741
-0.0422668
-0.0434875
-0.0453186
-0.045929
-0.0453186
-0.0439453
-0.0411987
-0.0364685
-0.0302124
-0.0219727
-0.0117493
-0.000305176
0.0134277
0.0302124
0.0485229
0.0700378
0.0961304
0.125122
0.158234
0.196228
0.238037
0.286102
0.338745
0.397186
0.461121
0.529175
0.601959
0.678253
0.758362
0.841064
0.925598
1.01028
1.09497
1.17767
1.25534
1.32645
1.38977
1.44196
1.48148
1.50742
1.51917
1.5155
1.49643
1.46286
1.41418
1.35147
1.27625
1.18881
1.09116
0.98465
0.870514
0.751343
0.628815
0.504761
0.381165
0.261078
0.144958
0.035553
-0.0668335
-0.16037
-0.243378
-0.315247
-0.374908
-0.422974
-0.458984
-0.483551
-0.498199
-0.50354
-0.498962
-0.488281
-0.472412
-0.452271
-0.42984
-0.406494
-0.38269
-0.360413
-0.339355
-0.320435
-0.304718
-0.291595
-0.280609
-0.272522
-0.265961
-0.261536
-0.258484
-0.256042
-0.254974
-0.253906
-0.252686
-0.251312
-0.249634
-0.248108
-0.246887
-0.245209
-0.244141
-0.24231
-0.240936
-0.239868
-0.239868
-0.239716
-0.239563
-0.239105
-0.238495
-0.237427
-0.235901
-0.233459
-0.23056
-0.226898
-0.222015
-0.216827
-0.210571
-0.205078
-0.19928
-0.193634
-0.188751
-0.184174
-0.179749
-0.176697
-0.174408
-0.172577
-0.171356
-0.169983
-0.168457
-0.167084
-0.165253
-0.162659
-0.159912
-0.156708
-0.152283
-0.147247
-0.142059
-0.136414
-0.131226
-0.12558
-0.120087
-0.115509
-0.111542
-0.10788
-0.105438
-0.103302
-0.101929
-0.100403
-0.0993347
-0.0979614
-0.0967407
-0.0952148
-0.0933838
-0.0909424
-0.087738
-0.0840759
-0.0799561
-0.0762939
-0.0727844
-0.0689697
-0.0657654
-0.0630188
-0.0605774
-0.0588989
-0.058136
-0.0585938
-0.0584412
-0.0588989
-0.0592041
-0.0596619
-0.059967
-0.059967
-0.0584412
-0.0572205
-0.0546265
-0.0512695
-0.0480652
-0.0442505
-0.0413513
-0.0376892
-0.0349426
-0.0314331
-0.0294495
-0.0274658
-0.0267029
-0.0265503
-0.0267029
-0.0270081
-0.0268555
-0.0271606
-0.0268555
-0.0263977
-0.0256348
-0.0239563
-0.0215149
-0.0187683
-0.015564
-0.0123596
-0.00900269
-0.00595093
-0.00274658
-0.000610352
0.00106812
0.00244141
0.00320435
0.00289917
0.00259399
0.00183105
0.00213623
0.00228882
0.00213623
0.00289917
0.00366211
0.00610352
0.00869751
0.0125122
0.0161743
0.0204468
0.0247192
0.0280762
0.0317383
0.03479
0.0375366
0.0389099
0.0396729
0.0396729
0.0395203
0.039978
0.0395203
0.0396729
0.0405884
0.0416565
0.0430298
0.0457764
0.0495911
0.0540161
0.0585938
0.063324
0.0683594
0.0733948
0.0782776
0.08255
0.0869751
0.0907898
0.0930786
0.0953674
0.0971985
0.0990295
0.100708
0.102692
0.104675
0.107422
0.110626
0.113831
0.119019
0.124207
0.129547
0.135345
0.141144
0.147095
0.152893
0.158081
0.162811
0.166779
0.170441
0.17334
0.176086
0.17868
0.181427
0.184174
0.188141
0.191345
0.19577
0.200958
0.206757
0.213013
0.219879
0.22644
0.232697
0.238495
0.244446
0.249634
0.254211
0.257721
0.260315
0.262146
0.263062
0.26413
0.264893
0.265808
0.266418
0.267334
0.268707
0.270233
0.272675
0.275421
0.278015
0.280914
0.283356
0.286102
0.287933
0.289001
0.289612
0.289001
0.287628
0.285339
0.282288
0.279694
0.276337
0.27298
0.269623
0.266266
0.263062
0.260315
0.258331
0.256805
0.254669
0.252228
0.249481
0.246124
0.242462
0.237579
0.232086
0.225067
0.216675
0.207214
0.197144
0.186615
0.175476
0.164032
0.152588
0.140839
0.129395
0.118256
0.107727
0.0973511
0.0871277
0.0772095
0.0669861
0.0566101
0.0456238
0.0346375
0.0231934
0.0111389
-0.00152588
-0.0151062
-0.0283813
-0.0413513
-0.0544739
-0.0666809
-0.0782776
-0.0891113
-0.0991821
-0.108032
-0.115509
-0.12207
-0.128021
-0.133667
-0.13855
-0.143585
-0.148468
-0.153198
-0.158386
-0.163574
-0.169373
-0.175934
-0.181885
-0.187683
-0.192871
-0.198212
-0.202484
-0.206146
-0.209656
-0.211487
-0.21225
-0.212555
-0.212097
-0.211182
-0.210419
-0.208588
-0.208282
-0.207214
-0.206451
-0.206909
-0.207977
-0.209198
-0.210724
-0.211945
-0.213318
-0.214081
-0.214691
-0.214539
-0.214081
-0.21286
-0.210266
-0.20752
-0.20401
-0.200195
-0.197144
-0.194244
-0.190582
-0.188599
-0.18631
-0.184784
-0.184479
-0.184479
-0.185089
-0.185547
-0.18631
-0.186615
-0.18692
-0.186615
-0.185699
-0.184174
-0.18158
-0.178986
-0.175171
-0.171814
-0.168457
-0.164795
-0.161896
-0.158997
-0.15686
-0.155182
-0.154572
-0.154114
-0.154266
-0.154266
-0.154266
-0.153809
-0.153503
-0.152283
-0.151062
-0.148773
-0.145569
-0.142212
-0.138397
-0.134735
-0.130768
-0.126648
-0.123596
-0.120239
-0.117645
-0.115967
-0.115204
-0.115356
-0.115051
-0.115204
-0.115204
-0.115204
-0.115204
-0.114441
-0.113678
-0.112152
-0.109558
-0.106506
-0.103607
-0.100555
-0.0971985
-0.0941467
-0.0917053
-0.0889587
-0.0869751
-0.0862122
-0.0860596
-0.0862122
-0.0869751
-0.0875854
-0.0883484
-0.0888062
-0.0891113
-0.0891113
-0.0886536
-0.0872803
-0.0854492
-0.0823975
-0.0790405
-0.0762939
-0.0730896
-0.0704956
-0.0683594
-0.0662231
-0.065155
-0.0646973
-0.0656128
-0.0669861
-0.0686646
-0.070343
-0.0723267
-0.0744629
-0.0759888
-0.0769043
-0.0778198
-0.0778198
-0.0765991
-0.0750732
-0.0732422
-0.071106
-0.0686646
-0.0663757
-0.0645447
-0.0628662
-0.0610352
-0.0604248
-0.0598145
-0.059967
-0.0602722
-0.0602722
-0.0601196
-0.0593567
-0.058136
-0.0567627
-0.0547791
-0.0521851
-0.0482178
-0.0440979
-0.039978
-0.0358582
-0.0320435
-0.0285339
-0.0256348
-0.0233459
-0.0215149
-0.0212097
-0.0222778
-0.0238037
-0.0259399
-0.0289917
-0.0323486
-0.035553
-0.0387573
-0.0413513
-0.0445557
-0.0462341
-0.04776
-0.0480652
-0.0483704
-0.0488281
-0.0488281
-0.0488281
-0.0489807
-0.0492859
-0.0497437
-0.0511169
-0.0527954
-0.0547791
-0.0567627
-0.0585938
-0.0602722
-0.0617981
-0.0622559
-0.0630188
-0.0631714
-0.0619507
-0.0601196
-0.0579834
-0.055542
-0.052948
-0.0508118
-0.0486755
-0.0469971
-0.0457764
-0.0447083
-0.0456238
-0.0462341
-0.0483704
-0.0508118
-0.0531006
-0.0552368
-0.0578308
-0.0595093
-0.0613403
-0.062561
-0.0628662
-0.0616455
-0.0605774
-0.0587463
-0.0569153
-0.0544739
-0.0527954
-0.0512695
-0.0497437
-0.0485229
-0.0485229
-0.0492859
-0.0502014
-0.0518799
-0.0537109
-0.0553894
-0.057373
-0.0592041
-0.0605774
-0.0617981
-0.0624084
-0.0619507
-0.0617981
-0.0610352
-0.06073
-0.0602722
-0.0601196
-0.0601196
-0.0610352
-0.0624084
-0.0645447
-0.0675964
-0.0709534
-0.0746155
-0.0784302
-0.0816345
-0.0845337
-0.0871277
-0.0888062
-0.0906372
-0.0909424
-0.090332
-0.0889587
-0.0874329
-0.0854492
-0.0836182
-0.0814819
-0.0798035
-0.0787354
-0.0776672
-0.0779724
-0.0790405
-0.0801086
-0.0822449
-0.0843811
-0.0865173
-0.0883484
-0.0898743
-0.0914001
-0.0918579
-0.0923157
-0.0915527
-0.090332
-0.0891113
-0.0875854
-0.0865173
-0.0849915
-0.0842285
-0.083313
-0.0827026
-0.083313
-0.0845337
-0.0860596
-0.0875854
-0.0897217
-0.091095
-0.0927734
-0.0941467
-0.0941467
-0.0941467
-0.0933838
-0.0912476
-0.0891113
-0.0862122
-0.0836182
-0.0808716
-0.078125
-0.0759888
-0.0741577
-0.072937
-0.0724792
-0.0727844
-0.0740051
-0.075531
-0.0767517
-0.0779724
-0.0798035
-0.0805664
-0.0813293
-0.0822449
-0.0817871
-0.0811768
-0.0791931
-0.0779724
-0.0765991
-0.0746155
-0.0735474
-0.0723267
-0.0718689
-0.0715637
-0.0721741
-0.0738525
-0.0752258
-0.0773621
-0.0794983
-0.0814819
-0.0834656
-0.0846863
-0.0857544
-0.085907
-0.0849915
-0.0836182
-0.0816345
-0.0791931
-0.0765991
-0.0743103
-0.0721741
-0.0700378
-0.0688171
-0.067749
-0.067749
-0.0688171
-0.070343
-0.0720215
-0.0746155
-0.0770569
-0.0791931
-0.0814819
-0.0837708
-0.085144
-0.0860596
-0.0863647
-0.0856018
-0.0848389
-0.0840759
-0.0837708
-0.0830078
-0.0830078
-0.0830078
-0.0830078
-0.0842285
-0.0865173
-0.0888062
-0.0907898
-0.0932312
-0.0956726
-0.0970459
-0.0985718
-0.0994873
-0.0996399
-0.0999451
-0.0979614
-0.0964355
-0.0941467
-0.0923157
-0.0900269
-0.0880432
-0.0865173
-0.0852966
-0.0848389
-0.085144
-0.0869751
-0.0883484
-0.090332
-0.0924683
-0.0946045
-0.096283
-0.0976562
-0.0990295
-0.0994873
-0.0985718
-0.0973511
-0.0949097
-0.0926208
-0.0898743
-0.0869751
-0.0843811
-0.0817871
-0.0799561
-0.0779724
-0.0773621
-0.0773621
-0.0778198
-0.0788879
-0.0798035
-0.0808716
-0.0814819
-0.0817871
-0.0822449
-0.0817871
-0.080719
-0.0791931
-0.0767517
-0.0740051
-0.0720215
-0.0695801
-0.0679016
-0.0663757
-0.0650024
-0.0642395
-0.0643921
-0.0657654
-0.0671387
-0.0694275
-0.0712585
-0.0730896
-0.0743103
-0.0756836
-0.0765991
-0.0770569
-0.0767517
-0.0749207
-0.0733948
-0.0712585
-0.0686646
-0.0663757
-0.0642395
-0.0624084
-0.0610352
-0.0604248
-0.059967
-0.0610352
-0.0619507
-0.0631714
-0.0645447
-0.065918
-0.0671387
-0.0680542
-0.0689697
-0.0694275
-0.0686646
-0.0674438
-0.0654602
-0.0636292
-0.0614929
-0.0592041
-0.057373
-0.0558472
-0.0546265
-0.0544739
-0.0541687
-0.055542
-0.0570679
-0.0582886
-0.0604248
-0.0622559
-0.063324
-0.0642395
-0.0650024
-0.0650024
-0.0642395
-0.062561
-0.0602722
-0.0578308
-0.0552368
-0.0526428
-0.0505066
-0.0485229
-0.0468445
-0.0453186
-0.0453186
-0.0453186
-0.0463867
-0.0480652
-0.0488281
-0.0505066
-0.0517273
-0.0524902
-0.0531006
-0.0534058
-0.0527954
-0.0509644
-0.0491333
-0.0468445
-0.0445557
-0.0419617
-0.0396729
-0.0376892
-0.0360107
-0.0349426
-0.0344849
-0.0350952
-0.0357056
-0.0366211
-0.0375366
-0.0389099
-0.0398254
-0.039978
-0.0402832
-0.0401306
-0.0390625
-0.0370789
-0.03479
-0.032959
-0.030365
-0.0285339
-0.0265503
-0.0256348
-0.0242615
-0.0241089
-0.0248718
-0.0262451
-0.0285339
-0.0305176
-0.0331116
-0.0357056
-0.0382996
-0.0401306
-0.0411987
-0.0424194
-0.042572
-0.0411987
-0.0404358
-0.0384521
-0.0367737
-0.0346375
-0.0328064
-0.0315857
-0.0306702
-0.0297546
-0.030365
-0.0311279
-0.032959
-0.0352478
-0.0366211
-0.0390625
-0.040741
-0.0424194
-0.0437927
-0.0442505
-0.0440979
-0.0428772
-0.0415039
-0.0395203
-0.0379944
-0.0358582
-0.0338745
-0.0325012
-0.0314331
-0.0308228
-0.0311279
-0.032196
-0.0337219
-0.0357056
-0.0376892
-0.0395203
-0.0408936
-0.0421143
-0.0428772
-0.0434875
-0.0427246
-0.0413513
-0.0398254
-0.037384
-0.035553
-0.0331116
-0.0317383
-0.0300598
-0.0292969
-0.0283813
-0.0282288
-0.0292969
-0.0305176
-0.032196
-0.0334167
-0.0349426
-0.0364685
-0.0372314
-0.0376892
-0.0376892
-0.0361633
-0.0343323
-0.0317383
-0.0294495
-0.0267029
-0.0241089
-0.0216675
-0.0196838
-0.018158
-0.0170898
-0.0169373
-0.0184631
-0.0196838
-0.0215149
-0.0230408
-0.0254822
-0.0270081
-0.0291443
-0.0306702
-0.0318909
-0.0320435
-0.0318909
-0.0308228
-0.0300598
-0.0289917
-0.0279236
-0.0274658
-0.0268555
-0.0270081
-0.0276184
-0.0288391
-0.0308228
-0.0332642
-0.0357056
-0.0384521
-0.0408936
-0.0430298
-0.0445557
-0.0457764
-0.0465393
-0.0463867
-0.0453186
-0.0436401
-0.0413513
-0.0393677
-0.0370789
-0.0349426
-0.0334167
-0.0317383
-0.0306702
-0.0306702
-0.0308228
-0.0323486
-0.0337219
-0.0352478
-0.0364685
-0.0375366
-0.0379944
-0.0386047
-0.038147
-0.037384
-0.0357056
-0.0332642
-0.0308228
-0.0280762
-0.0256348
-0.0231934
-0.0210571
-0.0189209
-0.0178528
-0.0167847
-0.0169373
-0.0169373
-0.017395
-0.0178528
-0.0180054
-0.0180054
-0.0169373
-0.0160217
-0.0144958
-0.0117493
-0.00854492
-0.00442505
-0.000610352
0.00350952
0.00762939
0.0108337
0.0143433
0.0167847
0.0189209
0.019989
0.0198364
0.0187683
0.0170898
0.015564
0.0132751
0.0109863
0.00900269
0.00686646
0.00579834
0.00549316
0.00595093
0.00717163
0.00900269
0.0105286
0.0125122
0.0146484
0.0167847
0.0189209
0.0212097
0.022583
0.0244141
0.0254822
0.0274658
0.0300598
0.0331116
0.0361633
0.0398254
0.0440979
0.0488281
0.0540161
0.0598145
0.0650024
0.0700378
0.0741577
0.0776672
0.0796509
0.0805664
0.0801086
0.0779724
0.0735474
0.0674438
0.0598145
0.0508118
0.0408936
0.0306702
0.0198364
0.00915527
-0.000915527
-0.0111389
-0.0201416
-0.0282288
-0.0354004
-0.0421143
-0.0480652
-0.0537109
-0.0588989
-0.0634766
-0.0679016
-0.0721741
-0.0769043
-0.0811768
-0.0860596
-0.0901794
-0.0938416
-0.0976562
-0.101013
-0.102997
-0.105438
-0.106812
-0.107422
-0.107269
-0.106049
-0.105133
-0.103302
-0.101929
-0.100861
-0.0991821
-0.0984192
-0.0975037
-0.098114
-0.0985718
-0.100555
-0.101929
-0.103302
-0.104523
-0.105438
-0.106201
-0.105743
-0.105286
-0.103912
-0.101318
-0.0987244
-0.0953674
-0.0921631
-0.0894165
-0.0862122
-0.0837708
-0.0816345
-0.0798035
-0.0793457
-0.0793457
-0.0802612
-0.0811768
-0.0819397
-0.08255
-0.0830078
-0.0831604
-0.0828552
-0.0820923
-0.080719
-0.0782776
-0.075531
-0.0723267
-0.0689697
-0.0663757
-0.0634766
-0.0614929
-0.059967
-0.0593567
-0.059967
-0.0610352
-0.0628662
-0.0642395
-0.0650024
-0.065155
-0.0639343
-0.0617981
-0.0576782
-0.0523376
-0.0447083
-0.0343323
-0.0216675
-0.00640869
0.0117493
0.032959
0.0578308
0.0871277
0.120697
0.158691
0.201569
0.249023
0.301208
0.358734
0.421448
0.488739
0.560303
0.635376
0.714264
0.795593
0.879364
0.965118
1.05072
1.13525
1.21613
1.29059
1.35834
1.41586
1.46164
1.49445
1.51199
1.51413
1.50009
1.47064
1.42578
1.36612
1.29318
1.20743
1.11023
1.00372
0.88913
0.769653
0.646667
0.522156
0.397949
0.276489
0.159607
0.0480652
-0.0549316
-0.149384
-0.234528
-0.309296
-0.372925
-0.424194
-0.464325
-0.493164
-0.511475
-0.520325
-0.520935
-0.513763
-0.501099
-0.482941
-0.461426
-0.439453
-0.41626
-0.392914
-0.371399
-0.351868
-0.334167
-0.319214
-0.307465
-0.298462
-0.292358
-0.287933
-0.285492
-0.284271
-0.284119
-0.284271
-0.285187
-0.286255
-0.286255
-0.285492
-0.284576
-0.283356
-0.281677
-0.280151
-0.278168
-0.276337
-0.274658
-0.272827
-0.272064
-0.271912
-0.271759
-0.271759
-0.271606
-0.271149
-0.270386
-0.269318
-0.267639
-0.265503
-0.262299
-0.257874
-0.253601
-0.248566
-0.243683
-0.238953
-0.233765
-0.22934
-0.225372
-0.222015
-0.219116
-0.217743
-0.216217
-0.214691
-0.213623
-0.212708
-0.211334
-0.209961
-0.207672
-0.205536
-0.202637
-0.198822
-0.194702
-0.190277
-0.186005
-0.182037
-0.177765
-0.174561
-0.171509
-0.168915
-0.167236
-0.166779
-0.166779
-0.166931
-0.166779
-0.166779
-0.166473
-0.165863
-0.164642
-0.163422
-0.160217
-0.15686
-0.153198
-0.148773
-0.144958
-0.140686
-0.136719
-0.133209
-0.129852
-0.127106
-0.12558
-0.124207
-0.124054
-0.123596
-0.122986
-0.123138
-0.122223
-0.121765
-0.120239
-0.118561
-0.116272
-0.113068
-0.109558
-0.105591
-0.101929
-0.0979614
-0.0942993
-0.091095
-0.0881958
-0.085907
-0.0842285
-0.0837708
-0.0834656
-0.083313
-0.0827026
-0.0830078
-0.0822449
-0.0814819
-0.0802612
-0.0787354
-0.0762939
-0.072937
-0.0689697
-0.0650024
-0.06073
-0.0564575
-0.0524902
-0.0491333
-0.045929
-0.043335
-0.0419617
-0.0410461
-0.0404358
-0.0405884
-0.0402832
-0.0401306
-0.0398254
-0.0387573
-0.0379944
-0.0363159
-0.0328064
-0.0289917
-0.025177
-0.0202942
-0.0158691
-0.0111389
-0.00656128
-0.00198364
0.00137329
0.00473022
0.00701904
0.00854492
0.00991821
0.0109863
0.012207
0.0135803
0.0149536
0.0172424
0.0192261
0.0219727
0.0257874
0.0302124
0.0350952
0.0395203
0.0448608
0.0495911
0.0547791
0.0590515
0.0634766
0.0671387
0.0695801
0.0720215
0.0737
0.0752258
0.0762939
0.078125
0.0794983
0.0822449
0.0849915
0.0880432
0.0923157
0.0975037
0.102692
0.108643
0.114136
0.120087
0.125427
0.130463
0.135193
0.139618
0.14267
0.145416
0.147095
0.148926
0.150909
0.152893
0.154877
0.157623
0.160522
0.163879
0.168457
0.17395
0.179291
0.185242
0.190887
0.196686
0.202789
0.207672
0.21286
0.21698
0.220032
0.222931
0.224762
0.226135
0.227509
0.228577
0.229645
0.23056
0.232086
0.233459
0.235443
0.238647
0.241547
0.244598
0.24704
0.249481
0.251465
0.252991
0.253601
0.253754
0.25238
0.250244
0.246887
0.24353
0.239868
0.235901
0.231323
0.227509
0.223389
0.218964
0.215607
0.212708
0.209503
0.206146
0.202179
0.197754
0.193329
0.187073
0.180206
0.172272
0.163727
0.153809
0.142822
0.131378
0.119629
0.107574
0.0956726
0.0837708
0.0720215
0.0602722
0.0500488
0.0401306
0.0306702
0.0212097
0.0117493
0.00244141
-0.00717163
-0.0170898
-0.0276184
-0.0379944
-0.0497437
-0.0614929
-0.0740051
-0.0857544
-0.0978088
-0.109406
-0.120544
-0.130463
-0.139923
-0.148621
-0.155792
-0.162048
-0.167694
-0.172729
-0.177612
-0.182037
-0.186615
-0.191193
-0.195923
-0.200653
-0.206299
-0.212708
-0.218658
-0.224609
-0.231018
-0.236053
-0.241089
-0.245056
-0.248871
-0.252075
-0.253448
-0.253906
-0.254059
-0.253296
-0.25238
-0.25116
-0.249939
-0.248413
-0.247345
-0.247192
-0.24704
-0.247345
-0.248871
-0.249939
-0.251312
-0.25177
-0.252686
-0.252686
-0.252228
-0.25116
-0.249329
-0.246124
-0.242767
-0.239258
-0.235138
-0.231171
-0.227661
-0.224457
-0.221405
-0.219116
-0.21759
-0.217285
-0.217438
-0.217285
-0.21698
-0.21759
-0.21759
-0.217285
-0.216675
-0.215607
-0.214081
-0.211334
-0.208282
-0.205231
-0.202484
-0.199432
-0.196686
-0.194244
-0.191956
-0.19043
-0.189972
-0.189972
-0.190125
-0.190887
-0.19104
-0.191498
-0.191498
-0.191345
-0.190887
-0.189362
-0.187531
-0.184784
-0.181427
-0.17868
-0.174866
-0.171356
-0.168915
-0.166016
-0.163422
-0.161743
-0.161133
-0.160675
-0.160675
-0.16098
-0.161133
-0.16098
-0.160675
-0.160217
-0.158691
-0.157318
-0.154572
-0.151215
-0.147247
-0.143433
-0.139008
-0.135498
-0.131989
-0.128632
-0.126038
-0.123749
-0.123138
-0.123596
-0.124359
-0.125427
-0.126953
-0.128326
-0.1297
-0.130768
-0.131073
-0.131378
-0.130463
-0.128632
-0.126495
-0.124207
-0.121765
-0.119324
-0.117035
-0.115204
-0.113678
-0.112457
-0.112305
-0.112915
-0.113678
-0.114288
-0.115509
-0.115967
-0.117035
-0.117035
-0.117493
-0.117188
-0.116119
-0.113678
-0.111542
-0.1091
-0.106964
-0.104828
-0.102539
-0.101166
-0.0999451
-0.0994873
-0.0997925
-0.101318
-0.103149
-0.104523
-0.106049
-0.107727
-0.108948
-0.109863
-0.110626
-0.110474
-0.109253
-0.107117
-0.104828
-0.102234
-0.0997925
-0.0976562
-0.0952148
-0.0933838
-0.0918579
-0.091095
-0.0912476
-0.0918579
-0.0932312
-0.0947571
-0.0961304
-0.0979614
-0.098877
-0.0999451
-0.10025
-0.100555
-0.0996399
-0.0984192
-0.0965881
-0.0941467
-0.0923157
-0.0906372
-0.0892639
-0.0878906
-0.0872803
-0.0866699
-0.0872803
-0.0886536
-0.090332
-0.0923157
-0.0944519
-0.0965881
-0.098114
-0.0994873
-0.101166
-0.101318
-0.101013
-0.0999451
-0.0984192
-0.0967407
-0.0947571
-0.0932312
-0.0920105
-0.090332
-0.0898743
-0.0897217
-0.0904846
-0.0920105
-0.0935364
-0.0956726
-0.0975037
-0.0991821
-0.100861
-0.101929
-0.102692
-0.102692
-0.102234
-0.100708
-0.0991821
-0.0970459
-0.0949097
-0.0932312
-0.0918579
-0.0909424
-0.0900269
-0.0901794
-0.0912476
-0.0930786
-0.0947571
-0.0970459
-0.0993347
-0.101776
-0.103302
-0.104675
-0.105743
-0.106201
-0.105286
-0.10376
-0.101624
-0.0994873
-0.0973511
-0.0947571
-0.0932312
-0.0915527
-0.0900269
-0.0895691
-0.0900269
-0.0914001
-0.0924683
-0.0942993
-0.096283
-0.0984192
-0.10025
-0.101624
-0.102692
-0.103912
-0.103149
-0.102234
-0.101013
-0.0994873
-0.0982666
-0.0965881
-0.0950623
-0.0938416
-0.0927734
-0.0926208
-0.0927734
-0.0941467
-0.0953674
-0.0973511
-0.0990295
-0.10025
-0.101471
-0.102386
-0.102844
-0.102844
-0.102081
-0.100708
-0.0993347
-0.0975037
-0.0956726
-0.0941467
-0.0926208
-0.0915527
-0.0904846
-0.090332
-0.0914001
-0.0932312
-0.0950623
-0.0967407
-0.0990295
-0.101013
-0.102234
-0.102844
-0.103149
-0.102692
-0.101471
-0.098877
-0.0959778
-0.0932312
-0.0901794
-0.0869751
-0.0842285
-0.0820923
-0.0798035
-0.0785828
-0.0787354
-0.0787354
-0.0796509
-0.0808716
-0.0819397
-0.0830078
-0.0839233
-0.0846863
-0.0848389
-0.0842285
-0.0827026
-0.0808716
-0.0782776
-0.0758362
-0.0737
-0.070343
-0.0679016
-0.0657654
-0.0639343
-0.0628662
-0.0624084
-0.062561
-0.0636292
-0.0643921
-0.065155
-0.065918
-0.0665283
-0.0668335
-0.0666809
-0.065918
-0.0639343
-0.0617981
-0.0593567
-0.0566101
-0.0534058
-0.0508118
-0.0485229
-0.0465393
-0.0447083
-0.0436401
-0.0436401
-0.0445557
-0.0456238
-0.0468445
-0.0485229
-0.0498962
-0.0512695
-0.0521851
-0.0527954
-0.0526428
-0.0512695
-0.0489807
-0.0463867
-0.0436401
-0.0405884
-0.0379944
-0.0352478
-0.032959
-0.0308228
-0.0297546
-0.0292969
-0.0297546
-0.0308228
-0.0317383
-0.0328064
-0.0341797
-0.0352478
-0.0352478
-0.0360107
-0.0354004
-0.0341797
-0.0317383
-0.0300598
-0.0276184
-0.025177
-0.0228882
-0.0212097
-0.0195312
-0.0184631
-0.018158
-0.0187683
-0.019989
-0.0210571
-0.0227356
-0.0250244
-0.0265503
-0.0276184
-0.0288391
-0.0291443
-0.0286865
-0.0276184
-0.0253296
-0.0228882
-0.0205994
-0.0178528
-0.0152588
-0.0131226
-0.0114441
-0.00961304
-0.0088501
-0.0088501
-0.00991821
-0.0112915
-0.0123596
-0.0141907
-0.0154114
-0.0167847
-0.0183105
-0.0193787
-0.0198364
-0.0192261
-0.018158
-0.0170898
-0.015564
-0.0143433
-0.0131226
-0.0115967
-0.0111389
-0.0109863
-0.0109863
-0.012207
-0.0137329
-0.0154114
-0.017395
-0.0190735
-0.020752
-0.0218201
-0.0227356
-0.0230408
-0.0227356
-0.0215149
-0.0198364
-0.0172424
-0.0151062
-0.0126648
-0.0108337
-0.00900269
-0.00778198
-0.00701904
-0.00762939
-0.00823975
-0.0100708
-0.0125122
-0.014801
-0.0175476
-0.0196838
-0.0222778
-0.0239563
-0.0253296
-0.0257874
-0.0254822
-0.0242615
-0.0222778
-0.0202942
-0.0183105
-0.0160217
-0.0138855
-0.012207
-0.0108337
-0.0102234
-0.010376
-0.0109863
-0.0120544
-0.0137329
-0.0152588
-0.0164795
-0.0175476
-0.0180054
-0.0190735
-0.0189209
-0.018158
-0.0166321
-0.0149536
-0.0131226
-0.0111389
-0.00961304
-0.00823975
-0.00686646
-0.00610352
-0.00595093
-0.00640869
-0.00762939
-0.00961304
-0.0111389
-0.0131226
-0.0144958
-0.0161743
-0.0170898
-0.0177002
-0.0180054
-0.0167847
-0.0151062
-0.01297
-0.0111389
-0.0088501
-0.00686646
-0.00457764
-0.00335693
-0.00259399
-0.00198364
-0.00244141
-0.0038147
-0.00518799
-0.00686646
-0.00900269
-0.010376
-0.0112915
-0.012207
-0.0126648
-0.0128174
-0.0119019
-0.010376
-0.00839233
-0.00656128
-0.00488281
-0.00305176
-0.00183105
-0.000610352
-0.000305176
-0.000305176
-0.00152588
-0.00411987
-0.0062561
-0.00900269
-0.0117493
-0.0143433
-0.0169373
-0.0186157
-0.0202942
-0.0213623
-0.0210571
-0.0201416
-0.0192261
-0.0180054
-0.0163269
-0.0144958
-0.0128174
-0.0119019
-0.0106812
-0.0108337
-0.0112915
-0.0126648
-0.0141907
-0.0161743
-0.0180054
-0.0195312
-0.0209045
-0.0218201
-0.0227356
-0.0228882
-0.0224304
-0.0205994
-0.0187683
-0.0167847
-0.0146484
-0.0126648
-0.0109863
-0.00930786
-0.00793457
-0.00793457
-0.00823975
-0.00946045
-0.0109863
-0.01297
-0.0149536
-0.0166321
-0.0180054
-0.0190735
-0.019989
-0.019989
-0.0189209
-0.017395
-0.0160217
-0.0137329
-0.0117493
-0.0105286
-0.00869751
-0.00778198
-0.00671387
-0.00686646
-0.00762939
-0.00946045
-0.0117493
-0.0138855
-0.0160217
-0.0183105
-0.019989
-0.0213623
-0.0224304
-0.0231934
-0.0222778
-0.0209045
-0.0192261
-0.0170898
-0.0152588
-0.0131226
-0.0117493
-0.00976562
-0.00869751
-0.00823975
-0.00869751
-0.00976562
-0.0109863
-0.0128174
-0.0144958
-0.0158691
-0.0172424
-0.0178528
-0.0183105
-0.018158
-0.0172424
-0.0157166
-0.0135803
-0.0115967
-0.00930786
-0.00778198
-0.00610352
-0.00518799
-0.00473022
-0.00473022
-0.00549316
-0.00747681
-0.00976562
-0.0117493
-0.0131226
-0.015564
-0.0169373
-0.0175476
-0.0183105
-0.0177002
-0.0166321
-0.0138855
-0.0109863
-0.00747681
-0.00411987
-0.000305176
0.00305176
0.00656128
0.00946045
0.0128174
0.014801
0.0161743
0.0175476
0.0186157
0.0192261
0.020752
0.0219727
0.0234985
0.025177
0.0276184
0.0312805
0.0349426
0.0387573
0.0418091
0.0457764
0.0491333
0.0517273
0.0538635
0.0549316
0.0553894
0.0546265
0.0537109
0.0518799
0.0506592
0.0492859
0.0471497
0.0460815
0.0456238
0.0450134
0.0456238
0.0473022
0.0502014
0.0543213
0.0582886
0.0627136
0.0675964
0.0727844
0.0778198
0.0834656
0.087738
0.0914001
0.0939941
0.096283
0.0984192
0.0999451
0.100861
0.101471
0.101624
0.102081
0.101929
0.102081
0.102081
0.101318
0.0993347
0.0961304
0.0923157
0.0871277
0.0804138
0.0732422
0.0646973
0.0550842
0.0445557
0.0338745
0.0230408
0.0123596
0.00198364
-0.00778198
-0.0161743
-0.0242615
-0.030365
-0.0354004
-0.0386047
-0.0410461
-0.0430298
-0.0442505
-0.0445557
-0.0453186
-0.045929
-0.0463867
-0.0473022
-0.0488281
-0.0512695
-0.0540161
-0.0563049
-0.0585938
-0.0613403
-0.063324
-0.065155
-0.0662231
-0.0669861
-0.0665283
-0.0656128
-0.0634766
-0.0622559
-0.0602722
-0.0585938
-0.0569153
-0.055542
-0.0543213
-0.0543213
-0.0547791
-0.0558472
-0.0570679
-0.0579834
-0.0592041
-0.0602722
-0.0608826
-0.0610352
-0.0613403
-0.0598145
-0.0587463
-0.0556946
-0.0526428
-0.0495911
-0.0466919
-0.0434875
-0.0404358
-0.0382996
-0.0357056
-0.0344849
-0.0337219
-0.0337219
-0.0343323
-0.0352478
-0.0357056
-0.0367737
-0.0376892
-0.038147
-0.0387573
-0.0392151
-0.0384521
-0.037384
-0.0361633
-0.0352478
-0.0337219
-0.0328064
-0.0309753
-0.0291443
-0.0263977
-0.0236511
-0.020752
-0.017395
-0.0125122
-0.00671387
0.00106812
0.0112915
0.0245667
0.0408936
0.0613403
0.0869751
0.118256
0.154877
0.197144
0.244751
0.298004
0.357056
0.42038
0.488586
0.560303
0.635071
0.71228
0.791168
0.871887
0.953369
1.03516
1.11588
1.19431
1.26862
1.33667
1.39679
1.44745
1.48636
1.5123
1.52405
1.52054
1.50131
1.46622
1.41602
1.35162
1.27289
1.18057
1.07773
0.964661
0.844727
0.719604
0.591888
0.464325
0.338135
0.216675
0.101318
-0.00564575
-0.102997
-0.190125
-0.266113
-0.3302
-0.382385
-0.423584
-0.453186
-0.472565
-0.483093
-0.486145
-0.482483
-0.472717
-0.458832
-0.441742
-0.422668
-0.402374
-0.380859
-0.360413
-0.340729
-0.320892
-0.30365
-0.287476
-0.273895
-0.261993
-0.252533
-0.244904
-0.239258
-0.235596
-0.233459
-0.233002
-0.233917
-0.235596
-0.237579
-0.239868
-0.241699
-0.24353
-0.244141
-0.244751
-0.243835
-0.242615
-0.239868
-0.236206
-0.232544
-0.228424
-0.224304
-0.220337
-0.21637
-0.212708
-0.209656
-0.20752
-0.205383
-0.204163
-0.202637
-0.200958
-0.199127
-0.197296
-0.195007
-0.192108
-0.188599
-0.184326
-0.179596
-0.174103
-0.169067
-0.163879
-0.158539
-0.154114
-0.149994
-0.146332
-0.143585
-0.141602
-0.140686
-0.139618
-0.139313
-0.138702
-0.138855
-0.137787
-0.136871
-0.136108
-0.13382
-0.131073
-0.127563
-0.124054
-0.120392
-0.116882
-0.113068
-0.109558
-0.106354
-0.103912
-0.101929
-0.100861
-0.100403
-0.10025
-0.10025
-0.100098
-0.0997925
-0.0993347
-0.0979614
-0.096283
-0.0941467
-0.0906372
-0.0866699
-0.08255
-0.0787354
-0.0744629
-0.0708008
-0.0671387
-0.0639343
-0.0610352
-0.0592041
-0.0585938
-0.0582886
-0.0587463
-0.0585938
-0.0590515
-0.0587463
-0.0587463
-0.0585938
-0.0575256
-0.0559998
-0.0531006
-0.0498962
-0.0463867
-0.0421143
-0.0382996
-0.0343323
-0.0309753
-0.0271606
-0.0244141
-0.0219727
-0.020752
-0.0196838
-0.0192261
-0.0192261
-0.0190735
-0.0189209
-0.0184631
-0.0177002
-0.0167847
-0.0149536
-0.0123596
-0.00900269
-0.00564575
-0.00198364
0.00137329
0.00488281
0.00793457
0.0108337
0.01297
0.0149536
0.015564
0.015564
0.015564
0.015564
0.0152588
0.0149536
0.0151062
0.0157166
0.0167847
0.0183105
0.0212097
0.0248718
0.0282288
0.0325012
0.0358582
0.0396729
0.0422668
0.0457764
0.0486755
0.0512695
0.0521851
0.0527954
0.0535583
0.0543213
0.0549316
0.0553894
0.0564575
0.0579834
0.0595093
0.0622559
0.0662231
0.0704956
0.0749207
0.0799561
0.0846863
0.0894165
0.0944519
0.0984192
0.102692
0.105286
0.108032
0.1091
0.110626
0.111847
0.113068
0.114746
0.117035
0.119324
0.121765
0.125732
0.130157
0.135345
0.141144
0.147247
0.153046
0.159149
0.164948
0.170135
0.175018
0.179291
0.1828
0.185547
0.187683
0.190125
0.192413
0.194702
0.197601
0.2005
0.203857
0.207672
0.21286
0.218201
0.223694
0.228577
0.233917
0.238953
0.24353
0.24704
0.250397
0.252991
0.254211
0.254517
0.253906
0.253448
0.252533
0.25177
0.250549
0.249634
0.248566
0.248108
0.248413
0.24826
0.248871
0.249023
0.249329
0.249023
0.247803
0.246582
0.244598
0.241089
0.237122
0.231781
0.226288
0.220337
0.214081
0.207367
0.200806
0.19455
0.187988
0.18158
0.176086
0.170898
0.164795
0.159607
0.152893
0.146179
0.138397
0.129852
0.120392
0.109863
0.0976562
0.0846863
0.0712585
0.0575256
0.0430298
0.0292969
0.0154114
0.00183105
-0.0112915
-0.0233459
-0.03479
-0.0450134
-0.0549316
-0.0642395
-0.0732422
-0.0822449
-0.0907898
-0.0996399
-0.10849
-0.117188
-0.127258
-0.137024
-0.14679
-0.155945
-0.165253
-0.17334
-0.180969
-0.187988
-0.194092
-0.198975
-0.203094
-0.205688
-0.207825
-0.209351
-0.210876
-0.21225
-0.21347
-0.214844
-0.21637
-0.218353
-0.221405
-0.224915
-0.228577
-0.232086
-0.235138
-0.238342
-0.240631
-0.242462
-0.243988
-0.244293
-0.243378
-0.242157
-0.240173
-0.237885
-0.235596
-0.233459
-0.231476
-0.229645
-0.228271
-0.227661
-0.227814
-0.228424
-0.229187
-0.230408
-0.231018
-0.231476
-0.231934
-0.231934
-0.232239
-0.23056
-0.228424
-0.225983
-0.222931
-0.219574
-0.21637
-0.21347
-0.210724
-0.20813
-0.205994
-0.204163
-0.203857
-0.2034
-0.203247
-0.203247
-0.203094
-0.202637
-0.202179
-0.201111
-0.199738
-0.197601
-0.194702
-0.19104
-0.187683
-0.184021
-0.180817
-0.177612
-0.174408
-0.171814
-0.169678
-0.16861
-0.168152
-0.168152
-0.168762
-0.16922
-0.16922
-0.16983
-0.169525
-0.168915
-0.167847
-0.166016
-0.162964
-0.159607
-0.155792
-0.15152
-0.147552
-0.143433
-0.139618
-0.135956
-0.133667
-0.131378
-0.130615
-0.130463
-0.130615
-0.131683
-0.132751
-0.133209
-0.133667
-0.134277
-0.134583
-0.133667
-0.131683
-0.128937
-0.126648
-0.123291
-0.120239
-0.11734
-0.114594
-0.111542
-0.109711
-0.10849
-0.10788
-0.10788
-0.10788
-0.107574
-0.10788
-0.108337
-0.108032
-0.107422
-0.106506
-0.105591
-0.103149
-0.100708
-0.0976562
-0.0946045
-0.0923157
-0.0894165
-0.0878906
-0.0862122
-0.0849915
-0.085144
-0.085907
-0.0869751
-0.0894165
-0.0917053
-0.0933838
-0.0950623
-0.0967407
-0.098114
-0.0987244
-0.0984192
-0.0973511
-0.09552
-0.0935364
-0.0912476
-0.0891113
-0.0863647
-0.0848389
-0.08255
-0.0814819
-0.080719
-0.0810242
-0.0811768
-0.0820923
-0.0830078
-0.0840759
-0.0845337
-0.0849915
-0.0848389
-0.0843811
-0.0834656
-0.0817871
-0.0793457
-0.0773621
-0.0750732
-0.0726318
-0.0701904
-0.068512
-0.0671387
-0.0663757
-0.0660706
-0.0666809
-0.0680542
-0.0697327
-0.0715637
-0.072937
-0.0746155
-0.0753784
-0.0764465
-0.0764465
-0.0756836
-0.0738525
-0.0712585
-0.0683594
-0.0654602
-0.062561
-0.0593567
-0.0570679
-0.0546265
-0.0527954
-0.0520325
-0.0521851
-0.052948
-0.0538635
-0.0550842
-0.0569153
-0.0582886
-0.0596619
-0.06073
-0.0614929
-0.0616455
-0.0610352
-0.059967
-0.0590515
-0.057373
-0.0564575
-0.0550842
-0.0543213
-0.0535583
-0.0535583
-0.0541687
-0.0563049
-0.0585938
-0.0608826
-0.063324
-0.0657654
-0.0675964
-0.0695801
-0.0708008
-0.0717163
-0.0714111
-0.0704956
-0.0689697
-0.0669861
-0.065155
-0.0631714
-0.0605774
-0.0590515
-0.058136
-0.0570679
-0.0567627
-0.0576782
-0.0590515
-0.0610352
-0.0628662
-0.0650024
-0.0671387
-0.0689697
-0.0704956
-0.0715637
-0.0720215
-0.0718689
-0.0704956
-0.0697327
-0.0683594
-0.0672913
-0.065918
-0.0646973
-0.0643921
-0.0645447
-0.0650024
-0.0662231
-0.0683594
-0.0698853
-0.0720215
-0.0738525
-0.0753784
-0.0764465
-0.0772095
-0.0778198
-0.0772095
-0.0756836
-0.0737
-0.0714111
-0.0686646
-0.0669861
-0.0643921
-0.0628662
-0.0616455
-0.06073
-0.0613403
-0.0624084
-0.0640869
-0.0657654
-0.0680542
-0.0697327
-0.0712585
-0.0727844
-0.0740051
-0.0744629
-0.0743103
-0.0733948
-0.0717163
-0.0697327
-0.0679016
-0.0654602
-0.063324
-0.0619507
-0.0596619
-0.0587463
-0.058136
-0.0584412
-0.0593567
-0.0608826
-0.062561
-0.0640869
-0.0656128
-0.0665283
-0.0680542
-0.0686646
-0.0683594
-0.0672913
-0.065918
-0.0642395
-0.0624084
-0.06073
-0.0595093
-0.0585938
-0.0575256
-0.058136
-0.0590515
-0.0614929
-0.0634766
-0.0663757
-0.0695801
-0.0723267
-0.0750732
-0.0772095
-0.0794983
-0.0810242
-0.0817871
-0.0814819
-0.080719
-0.0799561
-0.0784302
-0.0767517
-0.0753784
-0.0743103
-0.0732422
-0.0727844
-0.0732422
-0.0743103
-0.0759888
-0.0779724
-0.0799561
-0.0817871
-0.0836182
-0.0845337
-0.0856018
-0.0860596
-0.0860596
-0.0848389
-0.0830078
-0.0810242
-0.0790405
-0.0762939
-0.0744629
-0.0723267
-0.0709534
-0.0694275
-0.0694275
-0.0697327
-0.0704956
-0.0720215
-0.0735474
-0.0752258
-0.0764465
-0.0779724
-0.078125
-0.0785828
-0.078125
-0.0767517
-0.0752258
-0.0733948
-0.0715637
-0.0695801
-0.0675964
-0.0663757
-0.0654602
-0.0645447
-0.0650024
-0.0662231
-0.0675964
-0.0691223
-0.0708008
-0.0727844
-0.0743103
-0.075531
-0.0764465
-0.0769043
-0.0767517
-0.0758362
-0.0737
-0.0720215
-0.0700378
-0.0672913
-0.0660706
-0.0640869
-0.0630188
-0.0622559
-0.062561
-0.0634766
-0.0654602
-0.0669861
-0.0691223
-0.071106
-0.0724792
-0.0741577
-0.0746155
-0.0750732
-0.0744629
-0.0726318
-0.071106
-0.0683594
-0.0657654
-0.063324
-0.0605774
-0.0585938
-0.0567627
-0.0553894
-0.0549316
-0.0550842
-0.0561523
-0.057373
-0.0590515
-0.0608826
-0.0621033
-0.0636292
-0.0643921
-0.0650024
-0.0653076
-0.0640869
-0.0622559
-0.0608826
-0.0593567
-0.0576782
-0.0559998
-0.0547791
-0.0541687
-0.0535583
-0.0544739
-0.0556946
-0.0572205
-0.0593567
-0.0611877
-0.0630188
-0.0646973
-0.065918
-0.0668335
-0.0671387
-0.0671387
-0.065918
-0.0637817
-0.0619507
-0.0595093
-0.0576782
-0.0553894
-0.0535583
-0.0521851
-0.0517273
-0.0515747
-0.0527954
-0.0541687
-0.0561523
-0.0582886
-0.06073
-0.062561
-0.0642395
-0.0656128
-0.0665283
-0.0665283
-0.0656128
-0.0640869
-0.0617981
-0.0598145
-0.0576782
-0.0553894
-0.0537109
-0.052948
-0.0515747
-0.0512695
-0.0518799
-0.052948
-0.0546265
-0.0566101
-0.0579834
-0.0593567
-0.0605774
-0.0613403
-0.0622559
-0.0624084
-0.0614929
-0.0602722
-0.0585938
-0.0570679
-0.055542
-0.0543213
-0.052948
-0.0523376
-0.0520325
-0.0523376
-0.0535583
-0.0549316
-0.0564575
-0.0587463
-0.0602722
-0.0614929
-0.0622559
-0.0628662
-0.0628662
-0.0617981
-0.059967
-0.0572205
-0.0546265
-0.0518799
-0.0492859
-0.0462341
-0.0444031
-0.042572
-0.0411987
-0.040741
-0.0413513
-0.0428772
-0.0450134
-0.0466919
-0.0488281
-0.0502014
-0.0515747
-0.0527954
-0.0537109
-0.0531006
-0.0521851
-0.0506592
-0.0485229
-0.0466919
-0.0444031
-0.042572
-0.040741
-0.0393677
-0.0384521
-0.038147
-0.0389099
-0.0396729
-0.0408936
-0.0424194
-0.0436401
-0.045166
-0.045929
-0.0469971
-0.0471497
-0.0465393
-0.0454712
-0.0431824
-0.0413513
-0.0392151
-0.037384
-0.0350952
-0.0335693
-0.0323486
-0.0317383
-0.0320435
-0.032959
-0.0349426
-0.0366211
-0.0387573
-0.0404358
-0.0424194
-0.0440979
-0.045166
-0.0457764
-0.0456238
-0.0440979
-0.0427246
-0.0404358
-0.0382996
-0.0367737
-0.0341797
-0.0325012
-0.0311279
-0.030365
-0.0302124
-0.0311279
-0.0320435
-0.0338745
-0.0357056
-0.0372314
-0.0384521
-0.0393677
-0.0405884
-0.0408936
-0.0405884
-0.0396729
-0.038147
-0.0367737
-0.0346375
-0.032959
-0.0314331
-0.030365
-0.0291443
-0.0288391
-0.0291443
-0.030365
-0.032196
-0.0341797
-0.0357056
-0.0372314
-0.0390625
-0.0401306
-0.0405884
-0.0405884
-0.039978
-0.0382996
-0.0361633
-0.0337219
-0.0305176
-0.0280762
-0.0253296
-0.0234985
-0.0218201
-0.020752
-0.0209045
-0.0213623
-0.0224304
-0.0242615
-0.0259399
-0.027771
-0.0297546
-0.0309753
-0.0320435
-0.0326538
-0.032196
-0.0309753
-0.0292969
-0.0274658
-0.0250244
-0.0224304
-0.0195312
-0.0170898
-0.0143433
-0.0120544
-0.0102234
-0.00930786
-0.00869751
-0.00839233
-0.00732422
-0.00671387
-0.00595093
-0.00457764
-0.00335693
-0.0012207
0.00198364
0.00549316
0.00946045
0.0135803
0.0178528
0.0212097
0.025177
0.0279236
0.0302124
0.0318909
0.0323486
0.0312805
0.0302124
0.0280762
0.0260925
0.0238037
0.0221252
0.0205994
0.0196838
0.0195312
0.0204468
0.0218201
0.0241089
0.0268555
0.030365
0.0334167
0.0375366
0.0408936
0.0448608
0.0494385
0.0531006
0.0563049
0.0596619
0.0624084
0.0656128
0.0689697
0.0723267
0.0761414
0.0788879
0.08255
0.0862122
0.0898743
0.0935364
0.0967407
0.098877
0.10025
0.0999451
0.0985718
0.0953674
0.0904846
0.0840759
0.0759888
0.0660706
0.0561523
0.0445557
0.0341797
0.0230408
0.0123596
0.00213623
-0.00778198
-0.0161743
-0.0231934
-0.0296021
-0.0349426
-0.0393677
-0.043335
-0.0471497
-0.0502014
-0.0532532
-0.0559998
-0.0590515
-0.0622559
-0.0660706
-0.0692749
-0.0724792
-0.0752258
-0.0775146
-0.0793457
-0.0810242
-0.0820923
-0.0817871
-0.0804138
-0.0787354
-0.0761414
-0.0740051
-0.0717163
-0.0694275
-0.0675964
-0.0657654
-0.0639343
-0.0634766
-0.0639343
-0.0650024
-0.0657654
-0.0671387
-0.0679016
-0.0689697
-0.0692749
-0.0692749
-0.0691223
-0.0675964
-0.0654602
-0.0630188
-0.0601196
-0.0572205
-0.0543213
-0.0515747
-0.0492859
-0.0476074
-0.0457764
-0.0453186
-0.0454712
-0.0465393
-0.0474548
-0.0486755
-0.0500488
-0.0515747
-0.0526428
-0.0532532
-0.0535583
-0.052948
-0.0517273
-0.0500488
-0.0483704
-0.0463867
-0.0447083
-0.0430298
-0.0419617
-0.0410461
-0.0404358
-0.0411987
-0.0419617
-0.0428772
-0.0431824
-0.042572
-0.0410461
-0.038147
-0.0332642
-0.0276184
-0.0192261
-0.00900269
0.00411987
0.0205994
0.0401306
0.0624084
0.0897217
0.120697
0.156403
0.196991
0.242157
0.292053
0.346527
0.406189
0.469818
0.537872
0.610199
0.685425
0.76416
0.845337
0.928192
1.01257
1.09665
1.17889
1.25702
1.32889
1.39252
1.44516
1.48483
1.51138
1.52237
1.51764
1.49597
1.45844
1.40625
1.33926
1.25854
1.16592
1.06262
0.950775
0.831757
0.708771
0.584106
0.459137
0.335846
0.216827
0.103149
-0.00320435
-0.101013
-0.189514
-0.266724
-0.333862
-0.389862
-0.434265
-0.467377
-0.489655
-0.502625
-0.506744
-0.502625
-0.492859
-0.477905
-0.459137
-0.437317
-0.413666
-0.389709
-0.367279
-0.345459
-0.325623
-0.308838
-0.293579
-0.281525
-0.272064
-0.26535
-0.26123
-0.258484
-0.256805
-0.256805
-0.257111
-0.257263
-0.257568
-0.257721
-0.257568
-0.256195
-0.254364
-0.252075
-0.249176
-0.246582
-0.243378
-0.240631
-0.237579
-0.234985
-0.233154
-0.231781
-0.230865
-0.229645
-0.228729
-0.227509
-0.225983
-0.223694
-0.2211
-0.217896
-0.213928
-0.20874
-0.203094
-0.197754
-0.192108
-0.186768
-0.181274
-0.176544
-0.172272
-0.168457
-0.166168
-0.164337
-0.163269
-0.162201
-0.161896
-0.16098
-0.16037
-0.159149
-0.158234
-0.156555
-0.153809
-0.150299
-0.145874
-0.141754
-0.137329
-0.132751
-0.128632
-0.124664
-0.121002
-0.11734
-0.115051
-0.113525
-0.112152
-0.111694
-0.110779
-0.109863
-0.109253
-0.108185
-0.106659
-0.104828
-0.101776
-0.0984192
-0.0944519
-0.0904846
-0.0865173
-0.0823975
-0.0785828
-0.0752258
-0.0723267
-0.0704956
-0.0688171
-0.0682068
-0.0682068
-0.0686646
-0.0692749
-0.0695801
-0.0700378
-0.0698853
-0.0695801
-0.0686646
-0.0669861
-0.0643921
-0.0611877
-0.0578308
-0.0544739
-0.050354
-0.0471497
-0.0439453
-0.0413513
-0.0387573
-0.037384
-0.0366211
-0.0363159
-0.0363159
-0.0364685
-0.0364685
-0.0360107
-0.0360107
-0.03479
-0.0337219
-0.0315857
-0.0291443
-0.0260925
-0.022583
-0.0189209
-0.0158691
-0.01297
-0.00976562
-0.00717163
-0.00488281
-0.00335693
-0.00274658
-0.00289917
-0.00228882
-0.00198364
-0.00183105
-0.00106812
0.000305176
0.00167847
0.00350952
0.00656128
0.0108337
0.0151062
0.0202942
0.025177
0.0299072
0.03479
0.0395203
0.0428772
0.0465393
0.0494385
0.0509644
0.0521851
0.0535583
0.0544739
0.055542
0.0569153
0.0585938
0.0605774
0.0630188
0.065918
0.070343
0.0752258
0.0798035
0.0849915
0.0904846
0.0953674
0.0999451
0.104523
0.108643
0.111847
0.114288
0.11673
0.118103
0.120544
0.122528
0.124664
0.127258
0.130615
0.134888
0.139465
0.144958
0.151215
0.157471
0.164185
0.170288
0.175934
0.181427
0.18692
0.191193
0.194702
0.197449
0.199738
0.201263
0.202789
0.204315
0.206299
0.208435
0.210876
0.213623
0.217133
0.221558
0.226593
0.231934
0.236969
0.242157
0.247192
0.252075
0.256653
0.26062
0.263214
0.265198
0.266724
0.267792
0.268402
0.26886
0.269165
0.26947
0.270233
0.270996
0.272217
0.273743
0.275726
0.27771
0.279388
0.280457
0.281067
0.28183
0.280914
0.280304
0.277557
0.274506
0.270386
0.266113
0.261383
0.256805
0.251923
0.247345
0.243073
0.2388
0.234985
0.231934
0.228729
0.225372
0.222168
0.217896
0.213318
0.207977
0.201721
0.19455
0.185699
0.175934
0.164795
0.153809
0.141754
0.128937
0.116577
0.103912
0.0918579
0.0791931
0.0683594
0.0569153
0.0466919
0.0367737
0.0268555
0.0170898
0.00686646
-0.00335693
-0.0135803
-0.0241089
-0.0354004
-0.0469971
-0.0584412
-0.0700378
-0.0811768
-0.0921631
-0.101929
-0.111542
-0.120239
-0.128326
-0.135193
-0.140533
-0.145416
-0.149689
-0.153961
-0.157623
-0.161285
-0.165405
-0.168915
-0.172729
-0.177917
-0.182648
-0.188293
-0.193787
-0.198975
-0.204163
-0.208588
-0.21225
-0.215607
-0.217896
-0.219116
-0.218811
-0.218201
-0.21698
-0.215454
-0.213165
-0.211639
-0.209961
-0.207977
-0.206909
-0.206451
-0.207214
-0.207672
-0.207825
-0.20874
-0.209198
-0.209351
-0.209198
-0.208893
-0.20813
-0.206146
-0.203247
-0.200043
-0.196838
-0.193481
-0.19043
-0.187378
-0.184784
-0.18219
-0.180206
-0.179291
-0.178986
-0.179291
-0.179596
-0.180054
-0.179901
-0.180664
-0.180206
-0.179443
-0.178223
-0.176544
-0.17334
-0.170135
-0.166626
-0.163269
-0.159454
-0.156097
-0.153198
-0.150604
-0.148163
-0.1474
-0.147247
-0.147095
-0.147705
-0.148468
-0.148926
-0.149841
-0.149841
-0.149994
-0.148926
-0.147552
-0.145111
-0.14267
-0.138855
-0.135345
-0.132141
-0.128937
-0.125885
-0.123138
-0.121002
-0.119324
-0.118561
-0.11795
-0.117798
-0.11734
-0.116882
-0.115967
-0.114746
-0.112762
-0.110931
-0.108337
-0.104828
-0.101013
-0.0975037
-0.093689
-0.0904846
-0.0868225
-0.0842285
-0.0823975
-0.0804138
-0.0802612
-0.0811768
-0.0820923
-0.0836182
-0.0854492
-0.0866699
-0.088501
-0.0892639
-0.0898743
-0.0900269
-0.0888062
-0.0868225
-0.0848389
-0.0819397
-0.0794983
-0.0767517
-0.0740051
-0.0718689
-0.070343
-0.0694275
-0.0688171
-0.0691223
-0.070343
-0.0714111
-0.0724792
-0.0741577
-0.0749207
-0.075531
-0.0762939
-0.0761414
-0.0753784
-0.0735474
-0.0714111
-0.0694275
-0.0669861
-0.0645447
-0.0627136
-0.0608826
-0.0593567
-0.0584412
-0.0588989
-0.0596619
-0.0613403
-0.0628662
-0.0650024
-0.0669861
-0.068512
-0.0697327
-0.0709534
-0.0718689
-0.0709534
-0.0697327
-0.0680542
-0.065918
-0.0637817
-0.0614929
-0.0595093
-0.0575256
-0.0556946
-0.0546265
-0.0540161
-0.0543213
-0.0552368
-0.0559998
-0.0566101
-0.0576782
-0.058136
-0.0585938
-0.0585938
-0.0579834
-0.0566101
-0.0546265
-0.0523376
-0.0498962
-0.0474548
-0.045166
-0.0431824
-0.0418091
-0.040741
-0.0402832
-0.040741
-0.0422668
-0.0439453
-0.0466919
-0.0485229
-0.0509644
-0.052948
-0.0549316
-0.0563049
-0.0570679
-0.0569153
-0.0564575
-0.0546265
-0.0537109
-0.0521851
-0.050354
-0.0491333
-0.0482178
-0.0473022
-0.0469971
-0.0473022
-0.0483704
-0.0502014
-0.0517273
-0.0534058
-0.0552368
-0.0564575
-0.0570679
-0.0578308
-0.0579834
-0.0572205
-0.0553894
-0.0532532
-0.0509644
-0.0488281
-0.0468445
-0.045166
-0.0434875
-0.042572
-0.0421143
-0.042572
-0.0439453
-0.045929
-0.0480652
-0.050354
-0.0518799
-0.0544739
-0.0558472
-0.0572205
-0.0584412
-0.0579834
-0.0569153
-0.0556946
-0.0543213
-0.0524902
-0.0506592
-0.0491333
-0.0479126
-0.0465393
-0.0463867
-0.0465393
-0.0480652
-0.0495911
-0.0509644
-0.0527954
-0.0544739
-0.0558472
-0.0569153
-0.0579834
-0.0579834
-0.0572205
-0.0556946
-0.0537109
-0.0515747
-0.0494385
-0.0473022
-0.0456238
-0.0437927
-0.0428772
-0.0427246
-0.0428772
-0.0444031
-0.0460815
-0.0480652
-0.0497437
-0.0520325
-0.0534058
-0.0547791
-0.0558472
-0.0567627
-0.0556946
-0.0546265
-0.052948
-0.0509644
-0.0489807
-0.0469971
-0.0447083
-0.0430298
-0.0418091
-0.0404358
-0.0402832
-0.0410461
-0.0415039
-0.0427246
-0.0439453
-0.0454712
-0.0462341
-0.0468445
-0.0469971
-0.0466919
-0.0456238
-0.0442505
-0.0421143
-0.039978
-0.0376892
-0.0357056
-0.0338745
-0.0323486
-0.0314331
-0.0309753
-0.0312805
-0.0326538
-0.0341797
-0.0366211
-0.038147
-0.0401306
-0.0415039
-0.043335
-0.0442505
-0.0442505
-0.0437927
-0.042572
-0.0402832
-0.0384521
-0.0360107
-0.0337219
-0.0317383
-0.0299072
-0.0283813
-0.027771
-0.0276184
-0.0289917
-0.0305176
-0.0320435
-0.0335693
-0.035553
-0.0370789
-0.0378418
-0.0387573
-0.0387573
-0.0384521
-0.0372314
-0.035553
-0.0337219
-0.0318909
-0.030365
-0.0285339
-0.0270081
-0.0260925
-0.0262451
-0.0262451
-0.0276184
-0.0292969
-0.0308228
-0.0328064
-0.0343323
-0.0357056
-0.0370789
-0.0375366
-0.0375366
-0.0367737
-0.0350952
-0.0332642
-0.0308228
-0.0285339
-0.0267029
-0.0244141
-0.0233459
-0.0224304
-0.0218201
-0.0224304
-0.0236511
-0.0256348
-0.0279236
-0.0299072
-0.0320435
-0.0344849
-0.0357056
-0.0372314
-0.0378418
-0.037384
-0.0366211
-0.0349426
-0.0334167
-0.0305176
-0.0292969
-0.0268555
-0.0256348
-0.0234985
-0.022583
-0.0224304
-0.022583
-0.0233459
-0.0242615
-0.0248718
-0.0256348
-0.0259399
-0.0260925
-0.0262451
-0.0254822
-0.0239563
-0.0210571
-0.0187683
-0.0157166
-0.0135803
-0.0106812
-0.00823975
-0.00640869
-0.00442505
-0.00366211
-0.00366211
-0.00442505
-0.00610352
-0.00747681
-0.00946045
-0.0105286
-0.012207
-0.01297
-0.0132751
-0.01297
-0.0120544
-0.00961304
-0.00778198
-0.00473022
-0.00228882
0.000152588
0.00228882
0.00396729
0.00549316
0.00656128
0.0062561
0.00549316
0.00411987
0.00244141
0.000762939
-0.000762939
-0.00213623
-0.00335693
-0.00442505
-0.00473022
-0.00442505
-0.00350952
-0.00152588
0.000457764
0.00198364
0.00396729
0.00579834
0.00686646
0.00823975
0.0088501
0.00854492
0.00732422
0.00549316
0.00350952
0.00167847
-0.000610352
-0.00228882
-0.00366211
-0.00488281
-0.00610352
-0.00595093
-0.00518799
-0.00411987
-0.00289917
-0.00167847
-0.000152588
0.000915527
0.00152588
0.00167847
0.00167847
0.000915527
-0.000762939
-0.00289917
-0.00488281
-0.00701904
-0.00946045
-0.0109863
-0.012207
-0.0132751
-0.0132751
-0.0123596
-0.0106812
-0.00869751
-0.00686646
-0.00396729
-0.00198364
-0.000305176
0.00137329
0.00320435
0.0038147
0.0038147
0.00274658
0.00152588
0.000305176
-0.00137329
-0.00305176
-0.00427246
-0.00518799
-0.00549316
-0.00579834
-0.00442505
-0.00244141
-0.000305176
0.00228882
0.00488281
0.00732422
0.00946045
0.0112915
0.0123596
0.0132751
0.0126648
0.0117493
0.0100708
0.00869751
0.00717163
0.00564575
0.00442505
0.00305176
0.00289917
0.00259399
0.00320435
0.00427246
0.00595093
0.00793457
0.0102234
0.0117493
0.0132751
0.0146484
0.0158691
0.0161743
0.0158691
0.0143433
0.0126648
0.0109863
0.0088501
0.00656128
0.00488281
0.00366211
0.00213623
0.00106812
0.00152588
0.00259399
0.00335693
0.0050354
0.00610352
0.00778198
0.00869751
0.00930786
0.0100708
0.0102234
0.00915527
0.00762939
0.00564575
0.00320435
0.00152588
-0.000610352
-0.00198364
-0.00320435
-0.0038147
-0.00411987
-0.00289917
-0.00106812
0.000762939
0.00320435
0.00549316
0.00823975
0.0100708
0.0120544
0.0134277
0.0138855
0.0135803
0.0126648
0.0112915
0.00976562
0.00854492
0.00671387
0.00549316
0.00427246
0.00366211
0.00366211
0.00457764
0.00610352
0.00793457
0.0100708
0.0128174
0.0152588
0.0172424
0.0187683
0.0204468
0.0209045
0.0209045
0.0198364
0.0184631
0.0167847
0.0152588
0.0134277
0.0119019
0.0106812
0.00976562
0.00976562
0.010376
0.0123596
0.0143433
0.0169373
0.0198364
0.0231934
0.0267029
0.0291443
0.0323486
0.0346375
0.0364685
0.0375366
0.0379944
0.0392151
0.039978
0.0410461
0.0422668
0.0437927
0.045929
0.0480652
0.0514221
0.0553894
0.0593567
0.0634766
0.0674438
0.071106
0.0737
0.0759888
0.0772095
0.0779724
0.0770569
0.0749207
0.0726318
0.0700378
0.0672913
0.0650024
0.0627136
0.0611877
0.059967
0.0592041
0.059967
0.0610352
0.0639343
0.0668335
0.0701904
0.0749207
0.0793457
0.0840759
0.0892639
0.0938416
0.0976562
0.101624
0.10498
0.108337
0.111084
0.113983
0.117035
0.119324
0.121307
0.123444
0.125122
0.127106
0.128326
0.128479
0.128174
0.126038
0.122528
0.11734
0.111237
0.103302
0.093689
0.0831604
0.0720215
0.0602722
0.0480652
0.0367737
0.0254822
0.0149536
0.00457764
-0.00427246
-0.0117493
-0.018158
-0.0231934
-0.0274658
-0.0308228
-0.0335693
-0.0361633
-0.0384521
-0.0402832
-0.042572
-0.045166
-0.0480652
-0.0505066
-0.0535583
-0.0564575
-0.0588989
-0.06073
-0.0622559
-0.0636292
-0.0640869
-0.0631714
-0.0617981
-0.0598145
-0.0570679
-0.0546265
-0.0524902
-0.0502014
-0.0483704
-0.0466919
-0.045929
-0.0453186
-0.0462341
-0.0471497
-0.0482178
-0.0494385
-0.0506592
-0.0514221
-0.0518799
-0.0521851
-0.0515747
-0.050354
-0.0479126
-0.0456238
-0.0424194
-0.039978
-0.0375366
-0.0350952
-0.0331116
-0.0314331
-0.030365
-0.0302124
-0.0309753
-0.0328064
-0.0335693
-0.03479
-0.0357056
-0.0369263
-0.037384
-0.0375366
-0.037384
-0.0361633
-0.0340271
-0.0315857
-0.0294495
-0.0276184
-0.0253296
-0.0231934
-0.0212097
-0.0195312
-0.0180054
-0.0167847
-0.0151062
-0.01297
-0.00991821
-0.00549316
0.000152588
0.00732422
0.0167847
0.0283813
0.0428772
0.0621033
0.0849915
0.112457
0.144501
0.18158
0.223999
0.271149
0.323792
0.381775
0.443726
0.509644
0.579376
0.652466
0.728607
0.807648
0.888824
0.971222
1.05438
1.13693
1.21674
1.29318
1.36353
1.42563
1.4769
1.51581
1.54114
1.55121
1.54587
1.52451
1.48727
1.43387
1.36566
1.28433
1.18973
1.08459
0.970764
0.850067
0.72464
0.597687
0.470734
0.346985
0.227203
0.114288
0.00930786
-0.0863647
-0.173035
-0.247955
-0.311584
-0.363464
-0.40451
-0.435028
-0.455017
-0.466614
-0.469666
-0.465546
-0.45578
-0.441437
-0.423431
-0.403137
-0.381622
-0.35965
-0.337524
-0.315857
-0.296173
-0.279083
-0.263977
-0.251007
-0.241241
-0.233612
-0.228271
-0.225983
-0.225525
-0.225983
-0.228119
-0.230713
-0.233307
-0.235443
-0.237579
-0.239105
-0.240173
-0.239563
-0.237885
-0.235748
-0.232697
-0.229797
-0.226135
-0.222168
-0.218506
-0.214844
-0.211639
-0.20874
-0.207062
-0.205231
-0.203247
-0.201721
-0.200195
-0.198364
-0.195923
-0.193787
-0.19104
-0.187225
-0.1828
-0.177917
-0.172882
-0.168457
-0.164032
-0.159302
-0.155334
-0.151825
-0.148926
-0.1474
-0.145721
-0.144958
-0.144348
-0.14328
-0.14267
-0.141449
-0.139618
-0.138092
-0.135498
-0.131989
-0.128174
-0.123749
-0.119324
-0.115051
-0.110626
-0.106506
-0.102386
-0.0994873
-0.0965881
-0.0950623
-0.0938416
-0.093689
-0.0933838
-0.092926
-0.092926
-0.0921631
-0.091095
-0.0901794
-0.0881958
-0.0854492
-0.0822449
-0.0785828
-0.0744629
-0.070343
-0.0665283
-0.0634766
-0.0601196
-0.0569153
-0.0550842
-0.0537109
-0.0535583
-0.0531006
-0.0535583
-0.0538635
-0.0535583
-0.0538635
-0.0532532
-0.0527954
-0.0515747
-0.0489807
-0.0465393
-0.0431824
-0.0402832
-0.0370789
-0.0340271
-0.0308228
-0.0283813
-0.0262451
-0.0245667
-0.0236511
-0.0234985
-0.0242615
-0.0248718
-0.0257874
-0.0256348
-0.0262451
-0.0259399
-0.0259399
-0.0247192
-0.0228882
-0.0201416
-0.0169373
-0.0134277
-0.0102234
-0.00717163
-0.00350952
-0.000610352
0.00167847
0.00366211
0.00488281
0.00488281
0.0050354
0.0050354
0.00411987
0.00457764
0.00457764
0.00534058
0.00564575
0.00732422
0.00961304
0.0131226
0.0164795
0.0201416
0.0244141
0.0280762
0.0315857
0.0350952
0.0382996
0.0404358
0.0421143
0.0431824
0.0439453
0.0448608
0.0456238
0.0468445
0.0483704
0.050354
0.0527954
0.0563049
0.0605774
0.0653076
0.0709534
0.0762939
0.0813293
0.0874329
0.0926208
0.0973511
0.101624
0.105591
0.10849
0.110168
0.112305
0.113678
0.115356
0.116882
0.118561
0.12085
0.123291
0.126038
0.129852
0.134735
0.139618
0.144958
0.150757
0.156097
0.161743
0.166931
0.171661
0.176544
0.180054
0.183258
0.185394
0.187988
0.190277
0.192871
0.195465
0.198517
0.201569
0.205536
0.210419
0.214996
0.220795
0.22583
0.231171
0.236359
0.241089
0.244904
0.248718
0.251312
0.252991
0.253601
0.253754
0.253601
0.252991
0.25238
0.252075
0.252228
0.252228
0.252838
0.253906
0.255432
0.257721
0.259552
0.261688
0.262604
0.263824
0.26413
0.263672
0.262299
0.259399
0.255585
0.251617
0.246429
0.241394
0.236359
0.230255
0.225372
0.219421
0.213928
0.209045
0.20462
0.199585
0.194702
0.189362
0.183411
0.176849
0.169373
0.161591
0.152588
0.142059
0.13031
0.117798
0.105591
0.0924683
0.0796509
0.0663757
0.0537109
0.0410461
0.0291443
0.018158
0.00762939
-0.00198364
-0.0114441
-0.0212097
-0.0302124
-0.0392151
-0.0485229
-0.0576782
-0.0675964
-0.078125
-0.0888062
-0.0997925
-0.110321
-0.120087
-0.129852
-0.138702
-0.147095
-0.154877
-0.161438
-0.166779
-0.171051
-0.175018
-0.17868
-0.181732
-0.184326
-0.187531
-0.19043
-0.192871
-0.196533
-0.200348
-0.204773
-0.20874
-0.213776
-0.21759
-0.221558
-0.224457
-0.227051
-0.229034
-0.230713
-0.230713
-0.230408
-0.229034
-0.227356
-0.225677
-0.223694
-0.222473
-0.220795
-0.219574
-0.218811
-0.218964
-0.219879
-0.220337
-0.22171
-0.222168
-0.222931
-0.223083
