0.315094
0.361328
0.409088
0.458221
0.508118
0.558624
0.609741
0.660706
0.710907
0.760193
0.807648
0.851746
0.892639
0.92926
0.960083
0.984955
1.0022
1.01135
1.01074
1.00037
0.979919
0.949402
0.909576
0.859985
0.801239
0.733185
0.657349
0.573883
0.484467
0.390472
0.294037
0.197144
0.100861
0.00778198
-0.0804138
-0.162659
-0.237732
-0.304413
-0.361328
-0.40802
-0.445557
-0.472107
-0.488739
-0.496216
-0.494843
-0.48584
-0.469971
-0.449677
-0.4245
-0.396881
-0.367432
-0.336914
-0.307007
-0.278015
-0.250397
-0.225067
-0.202637
-0.18219
-0.165405
-0.151825
-0.140533
-0.132599
-0.126495
-0.122986
-0.121765
-0.121765
-0.123749
-0.126495
-0.13031
-0.134125
-0.138245
-0.142365
-0.145721
-0.149078
-0.151367
-0.152435
-0.153198
-0.153046
-0.151978
-0.150604
-0.148926
-0.146332
-0.14389
-0.141296
-0.138702
-0.135956
-0.134125
-0.131989
-0.130463
-0.129242
-0.128021
-0.127106
-0.12619
-0.125122
-0.124207
-0.122833
-0.12146
-0.119934
-0.118866
-0.117188
-0.115356
-0.114288
-0.112
-0.110779
-0.109406
-0.10788
-0.106659
-0.106201
-0.105438
-0.105438
-0.10498
-0.10498
-0.104675
-0.104218
-0.103607
-0.102997
-0.101776
-0.100098
-0.0985718
-0.0965881
-0.0946045
-0.0926208
-0.091095
-0.0892639
-0.0875854
-0.0865173
-0.085907
-0.085144
-0.0849915
-0.0846863
-0.0845337
-0.0843811
-0.0837708
-0.0839233
-0.0828552
-0.0819397
-0.0808716
-0.0793457
-0.0776672
-0.0764465
-0.0747681
-0.072937
-0.0715637
-0.0698853
-0.0686646
-0.0679016
-0.0671387
-0.0665283
-0.0663757
-0.0663757
-0.0665283
-0.0665283
-0.0665283
-0.065918
-0.065918
-0.0643921
-0.0628662
-0.0613403
-0.0593567
-0.0570679
-0.0550842
-0.0523376
-0.0502014
-0.0474548
-0.0456238
-0.0436401
-0.0421143
-0.0408936
-0.039978
-0.0392151
-0.0389099
-0.038147
-0.0378418
-0.0369263
-0.0358582
-0.0346375
-0.032959
-0.0309753
-0.0291443
-0.0271606
-0.0245667
-0.0219727
-0.0193787
-0.0164795
-0.0140381
-0.0112915
-0.00854492
-0.00701904
-0.00457764
-0.00244141
-0.000610352
0.0012207
0.00350952
0.00564575
0.00793457
0.0105286
0.0134277
0.0161743
0.0192261
0.0221252
0.025177
0.0282288
0.0309753
0.0343323
0.0372314
0.0395203
0.0416565
0.0431824
0.0444031
0.0457764
0.04776
0.0489807
0.0506592
0.052948
0.055542
0.058136
0.0617981
0.065155
0.0689697
0.0735474
0.0773621
0.0814819
0.0862122
0.0906372
0.0952148
0.0991821
0.103455
0.107574
0.110931
0.114136
0.117645
0.12146
0.124817
0.128632
0.132446
0.136719
0.141296
0.145264
0.149841
0.154724
0.159149
0.163574
0.167694
0.171661
0.175629
0.178986
0.181732
0.184174
0.18631
0.187988
0.189667
0.19104
0.192261
0.193481
0.195312
0.196533
0.198669
0.200653
0.203094
0.205383
0.207672
0.209961
0.212097
0.213928
0.215302
0.216217
0.216675
0.216827
0.216217
0.215149
0.213776
0.212097
0.209503
0.20752
0.204468
0.201874
0.198669
0.19516
0.191956
0.187531
0.183563
0.178375
0.172882
0.166779
0.160065
0.153198
0.145569
0.136871
0.128326
0.118866
0.109406
0.0994873
0.0895691
0.0801086
0.0708008
0.0616455
0.0526428
0.0442505
0.0364685
0.0289917
0.0209045
0.0140381
0.00671387
-0.000457764
-0.00717163
-0.0143433
-0.0213623
-0.0286865
-0.0358582
-0.0427246
-0.0497437
-0.0564575
-0.0628662
-0.0683594
-0.0743103
-0.0787354
-0.0827026
-0.0865173
-0.0897217
-0.0930786
-0.0953674
-0.0982666
-0.100403
-0.102234
-0.104675
-0.106964
-0.1091
-0.111389
-0.114288
-0.116882
-0.119324
-0.121765
-0.123444
-0.125885
-0.126648
-0.127869
-0.128479
-0.128632
-0.128937
-0.128479
-0.127716
-0.127411
-0.126801
-0.126495
-0.125275
-0.125427
-0.125122
-0.125427
-0.126038
-0.126495
-0.126953
-0.127716
-0.128174
-0.128632
-0.128479
-0.128479
-0.128021
-0.127411
-0.126495
-0.125732
-0.124359
-0.122986
-0.121307
-0.120087
-0.119324
-0.118103
-0.117493
-0.117035
-0.117035
-0.117188
-0.117035
-0.117188
-0.117188
-0.117493
-0.116882
-0.116577
-0.115662
-0.114746
-0.118256
-0.119324
-0.120544
-0.121307
-0.12207
-0.122681
-0.123444
-0.123749
-0.123901
-0.123291
-0.122528
-0.121765
-0.121155
-0.120392
-0.119171
-0.118103
-0.11734
-0.116272
-0.115967
-0.115509
-0.115662
-0.115051
-0.115051
-0.114288
-0.114288
-0.112915
-0.112
-0.110931
-0.108643
-0.107727
-0.106049
-0.104523
-0.102997
-0.101166
-0.0990295
-0.0961304
-0.0921631
-0.0874329
-0.0816345
-0.0749207
-0.0660706
-0.0556946
-0.0424194
-0.0260925
-0.00595093
0.0184631
0.04776
0.0831604
0.124664
0.171661
0.223541
0.279694
0.339508
0.401459
0.46463
0.528717
0.593567
0.657196
0.718689
0.776978
0.829773
0.876007
0.914001
0.942383
0.960083
0.966187
0.960083
0.941772
0.91156
0.869293
0.815582
0.751648
0.678711
0.596924
0.509033
0.415802
0.318909
0.220947
0.123138
0.0282288
-0.0628662
-0.147705
-0.224762
-0.293579
-0.352325
-0.400238
-0.43808
-0.464783
-0.480804
-0.486755
-0.483093
-0.471649
-0.452423
-0.427704
-0.397949
-0.36499
-0.330048
-0.294189
-0.259247
-0.225677
-0.194855
-0.166473
-0.141449
-0.120544
-0.103607
-0.0900269
-0.0804138
-0.0743103
-0.0706482
-0.0698853
-0.0714111
-0.0744629
-0.0785828
-0.0839233
-0.0898743
-0.0952148
-0.101013
-0.106354
-0.111084
-0.115509
-0.119019
-0.121155
-0.122528
-0.123291
-0.122681
-0.121613
-0.120239
-0.11734
-0.114594
-0.111237
-0.107422
-0.103149
-0.0991821
-0.0953674
-0.0917053
-0.0888062
-0.0857544
-0.0839233
-0.0819397
-0.0810242
-0.0804138
-0.0802612
-0.0804138
-0.080719
-0.0811768
-0.0813293
-0.0816345
-0.0820923
-0.0816345
-0.0811768
-0.0798035
-0.0791931
-0.0779724
-0.0767517
-0.0759888
-0.0744629
-0.072937
-0.0718689
-0.0701904
-0.0692749
-0.0680542
-0.0672913
-0.0662231
-0.065155
-0.0637817
-0.0631714
-0.0619507
-0.0610352
-0.0596619
-0.0576782
-0.0556946
-0.0543213
-0.0520325
-0.0505066
-0.0486755
-0.0474548
-0.0462341
-0.0453186
-0.0448608
-0.0445557
-0.0442505
-0.0444031
-0.0445557
-0.0445557
-0.0448608
-0.0448608
-0.0447083
-0.0445557
-0.0437927
-0.0422668
-0.0413513
-0.0396729
-0.0379944
-0.0364685
-0.0346375
-0.0326538
-0.0308228
-0.0294495
-0.0288391
-0.0273132
-0.0267029
-0.0257874
-0.0247192
-0.0245667
-0.0234985
-0.022583
-0.0216675
-0.0205994
-0.0192261
-0.0172424
-0.0154114
-0.0135803
-0.0112915
-0.0088501
-0.00686646
-0.00488281
-0.00289917
-0.0012207
0.000152588
0.00167847
0.00335693
0.00411987
0.00518799
0.00686646
0.00823975
0.0100708
0.0119019
0.0141907
0.0172424
0.019989
0.0233459
0.0268555
0.0308228
0.0346375
0.038147
0.0415039
0.0447083
0.0485229
0.0506592
0.0537109
0.0556946
0.0576782
0.0595093
0.0610352
0.0628662
0.0642395
0.0656128
0.0671387
0.0686646
0.0706482
0.0727844
0.0744629
0.0765991
0.0784302
0.0801086
0.0816345
0.0830078
0.0839233
0.0848389
0.0848389
0.085144
0.0849915
0.0852966
0.0849915
0.0848389
0.0845337
0.0843811
0.0840759
0.0840759
0.0840759
0.085144
0.085144
0.0857544
0.0857544
0.085907
0.0857544
0.085144
0.0846863
0.0831604
0.0814819
0.0793457
0.0773621
0.075531
0.0727844
0.0708008
0.0679016
0.0657654
0.063324
0.0613403
0.0596619
0.0576782
0.0563049
0.0549316
0.0532532
0.0517273
0.0502014
0.0480652
0.0456238
0.0431824
0.0405884
0.0382996
0.0349426
0.0315857
0.0280762
0.0248718
0.0212097
0.0175476
0.0138855
0.0108337
0.00717163
0.00442505
0.0012207
-0.00183105
-0.00488281
-0.00808716
-0.0114441
-0.0152588
-0.0186157
-0.0227356
-0.0268555
-0.0320435
-0.0364685
-0.040741
-0.0453186
-0.0491333
-0.0532532
-0.0570679
-0.0598145
-0.0628662
-0.0653076
-0.0671387
-0.0686646
-0.070343
-0.0714111
-0.0724792
-0.0737
-0.0744629
-0.0759888
-0.0772095
-0.0785828
-0.0799561
-0.0817871
-0.0836182
-0.085144
-0.0865173
-0.0878906
-0.0892639
-0.0895691
-0.0907898
-0.0906372
-0.0907898
-0.090332
-0.0900269
-0.0898743
-0.0895691
-0.0889587
-0.0888062
-0.0886536
-0.0889587
-0.0895691
-0.0897217
-0.0907898
-0.0915527
-0.0918579
-0.0918579
-0.092926
-0.0926208
-0.0924683
-0.0924683
-0.0920105
-0.091095
-0.0901794
-0.0894165
-0.088501
-0.0874329
-0.0863647
-0.0857544
-0.0854492
-0.0852966
-0.085907
-0.0866699
-0.0871277
-0.0874329
-0.0888062
-0.0895691
-0.090332
-0.091095
-0.0912476
-0.0915527
-0.0907898
-0.0907898
-0.0900269
-0.0892639
-0.0888062
-0.0874329
-0.0866699
-0.0860596
-0.0846863
-0.0840759
-0.0834656
-0.0827026
-0.0823975
-0.0819397
-0.0810242
-0.0802612
-0.0790405
-0.0776672
-0.0761414
-0.0737
-0.0715637
-0.0689697
-0.0663757
-0.063324
-0.0602722
-0.0576782
-0.0547791
-0.0526428
-0.0505066
-0.0483704
-0.0471497
-0.045929
-0.0445557
-0.0442505
-0.0430298
-0.042572
-0.0421143
-0.0410461
-0.0402832
-0.0392151
-0.0378418
-0.0358582
-0.0346375
-0.0328064
-0.0308228
-0.0291443
-0.0273132
-0.0257874
-0.0244141
-0.0228882
-0.0224304
-0.0215149
-0.0212097
-0.0204468
-0.0198364
-0.0192261
-0.0186157
-0.0178528
-0.0170898
-0.0157166
-0.0143433
-0.01297
-0.0111389
-0.00961304
-0.00823975
-0.00656128
-0.00549316
-0.00427246
-0.00350952
-0.00289917
-0.00259399
-0.00320435
-0.00335693
-0.00411987
-0.00473022
-0.00488281
-0.00595093
-0.00656128
-0.00640869
-0.00686646
-0.00671387
-0.00595093
-0.00564575
-0.00564575
-0.00473022
-0.00442505
-0.00427246
-0.00366211
-0.00350952
-0.00411987
-0.00457764
-0.00534058
-0.00595093
-0.00671387
-0.00717163
-0.00793457
-0.00839233
-0.00854492
-0.00869751
-0.00823975
-0.00762939
-0.0062561
-0.0050354
-0.00335693
-0.00183105
0.0
0.00198364
0.00366211
0.00564575
0.00762939
0.00930786
0.0112915
0.0126648
0.0143433
0.0161743
0.0183105
0.0202942
0.0227356
0.0248718
0.0279236
0.0306702
0.0335693
0.0369263
0.0395203
0.0416565
0.0436401
0.0456238
0.0473022
0.0482178
0.0489807
0.0495911
0.0500488
0.0502014
0.0505066
0.0509644
0.0518799
0.0524902
0.0534058
0.0546265
0.0564575
0.058136
0.0602722
0.0628662
0.0654602
0.068512
0.0709534
0.0733948
0.0756836
0.0773621
0.0787354
0.0798035
0.0799561
0.0794983
0.0785828
0.0776672
0.0761414
0.0747681
0.072937
0.0712585
0.0695801
0.0675964
0.0665283
0.0648499
0.0631714
0.0613403
0.0595093
0.0576782
0.0553894
0.0523376
0.0495911
0.0460815
0.0424194
0.0386047
0.0340271
0.0296021
0.0250244
0.0201416
0.014801
0.00976562
0.00457764
-0.000305176
-0.00579834
-0.0109863
-0.0161743
-0.0218201
-0.0274658
-0.0331116
-0.0392151
-0.0445557
-0.050354
-0.0563049
-0.0621033
-0.0674438
-0.0726318
-0.0776672
-0.0823975
-0.0865173
-0.0898743
-0.0932312
-0.0950623
-0.0967407
-0.0978088
-0.098877
-0.0993347
-0.0994873
-0.0990295
-0.0993347
-0.0990295
-0.098877
-0.0990295
-0.0993347
-0.0999451
-0.100708
-0.101318
-0.101776
-0.102844
-0.102997
-0.103607
-0.104065
-0.104218
-0.103912
-0.103607
-0.102844
-0.101776
-0.101013
-0.0996399
-0.0991821
-0.0987244
-0.0982666
-0.098114
-0.0982666
-0.0985718
-0.098877
-0.0993347
-0.0999451
-0.10025
-0.100861
-0.101166
-0.100861
-0.100708
-0.0997925
-0.0990295
-0.0976562
-0.0967407
-0.0953674
-0.0941467
-0.0924683
-0.0909424
-0.0889587
-0.0872803
-0.0857544
-0.0845337
-0.083313
-0.0823975
-0.0813293
-0.0804138
-0.0791931
-0.0773621
-0.0747681
-0.0714111
-0.0666809
-0.0605774
-0.0527954
-0.043335
-0.0323486
-0.0193787
-0.00411987
0.0135803
0.035553
0.06073
0.0907898
0.12558
0.16571
0.210114
0.259552
0.312195
0.366821
0.423584
0.481873
0.540466
0.600128
0.659027
0.71579
0.769196
0.817566
0.858765
0.891876
0.914917
0.927887
0.928497
0.917358
0.894623
0.85907
0.812836
0.756226
0.68924
0.614624
0.532684
0.444946
0.353546
0.259552
0.16571
0.0733948
-0.015564
-0.0999451
-0.17746
-0.247803
-0.309296
-0.361633
-0.404205
-0.435944
-0.458374
-0.471344
-0.474396
-0.469666
-0.457001
-0.437775
-0.413055
-0.383759
-0.35141
-0.31723
-0.282288
-0.248413
-0.215302
-0.184479
-0.15686
-0.133057
-0.11261
-0.0964355
-0.0842285
-0.0761414
-0.0717163
-0.0704956
-0.0717163
-0.0752258
-0.0801086
-0.0860596
-0.0930786
-0.0999451
-0.106506
-0.112305
-0.11795
-0.122375
-0.125885
-0.128937
-0.13092
-0.131836
-0.132141
-0.131836
-0.131531
-0.13031
-0.129242
-0.127411
-0.125732
-0.123901
-0.121307
-0.119171
-0.11673
-0.113983
-0.111389
-0.108795
-0.105438
-0.102234
-0.0993347
-0.0965881
-0.0938416
-0.0915527
-0.0892639
-0.0874329
-0.0862122
-0.0846863
-0.0837708
-0.0830078
-0.0822449
-0.0816345
-0.0808716
-0.0801086
-0.0791931
-0.0782776
-0.0769043
-0.0752258
-0.0732422
-0.0714111
-0.0691223
-0.0669861
-0.0645447
-0.0628662
-0.0610352
-0.0596619
-0.0579834
-0.0572205
-0.0564575
-0.0556946
-0.0550842
-0.0547791
-0.0540161
-0.0532532
-0.0526428
-0.0512695
-0.0498962
-0.0485229
-0.0465393
-0.0445557
-0.0419617
-0.0395203
-0.0375366
-0.0352478
-0.0331116
-0.0311279
-0.0292969
-0.0280762
-0.0267029
-0.0253296
-0.0242615
-0.0228882
-0.0216675
-0.0204468
-0.0192261
-0.0178528
-0.0161743
-0.0143433
-0.0117493
-0.00915527
-0.00686646
-0.00427246
-0.00213623
0.000457764
0.00289917
0.00457764
0.00656128
0.00778198
0.00915527
0.0105286
0.0114441
0.0123596
0.0138855
0.0151062
0.0161743
0.0177002
0.0196838
0.0213623
0.0239563
0.0260925
0.0285339
0.0308228
0.0331116
0.0354004
0.0376892
0.0396729
0.0413513
0.0430298
0.0445557
0.0460815
0.0473022
0.0486755
0.050354
0.0518799
0.0541687
0.0563049
0.0588989
0.0611877
0.0642395
0.0675964
0.0708008
0.0738525
0.0765991
0.0790405
0.0820923
0.0842285
0.0865173
0.0883484
0.0895691
0.0904846
0.0912476
0.0917053
0.0927734
0.0930786
0.0932312
0.0939941
0.0942993
0.0952148
0.0961304
0.0970459
0.098114
0.0987244
0.0997925
0.100403
0.101166
0.101471
0.101318
0.101013
0.0999451
0.0991821
0.0982666
0.0973511
0.0964355
0.09552
0.0947571
0.0942993
0.0939941
0.0935364
0.0938416
0.0938416
0.0938416
0.093689
0.0941467
0.0938416
0.0932312
0.0926208
0.0917053
0.0900269
0.0880432
0.0860596
0.0836182
0.0817871
0.0798035
0.0770569
0.0752258
0.072937
0.0712585
0.0698853
0.068512
0.0668335
0.0656128
0.0640869
0.0619507
0.059967
0.058136
0.0556946
0.052948
0.0500488
0.0466919
0.0431824
0.0395203
0.0360107
0.032196
0.0282288
0.0244141
0.0210571
0.017395
0.0146484
0.0114441
0.0088501
0.00595093
0.00305176
0.000152588
-0.00289917
-0.00579834
-0.00869751
-0.0125122
-0.0160217
-0.0201416
-0.0241089
-0.0280762
-0.0318909
-0.0360107
-0.0392151
-0.0428772
-0.0456238
-0.0485229
-0.0509644
-0.0526428
-0.0547791
-0.0561523
-0.0572205
-0.0584412
-0.0593567
-0.0608826
-0.0622559
-0.063324
-0.0645447
-0.0665283
-0.0679016
-0.0692749
-0.0704956
-0.0717163
-0.0730896
-0.0737
-0.0741577
-0.0737
-0.0740051
-0.0730896
-0.0726318
-0.0718689
-0.0708008
-0.0692749
-0.068512
-0.0679016
-0.0669861
-0.0662231
-0.065918
-0.0656128
-0.065155
-0.0653076
-0.065155
-0.0650024
-0.0646973
-0.0646973
-0.0642395
-0.0637817
-0.062561
-0.0614929
-0.0602722
-0.0592041
-0.0579834
-0.057373
-0.0561523
-0.0556946
-0.0550842
-0.0549316
-0.0547791
-0.0552368
-0.0558472
-0.0561523
-0.0567627
-0.057373
-0.0579834
-0.0582886
-0.0584412
-0.0578308
-0.057373
-0.0567627
-0.0556946
-0.0546265
-0.0535583
-0.0523376
-0.0512695
-0.0505066
-0.0494385
-0.0492859
-0.0494385
-0.0488281
-0.0491333
-0.0491333
-0.0494385
-0.0497437
-0.0492859
-0.0491333
-0.0485229
-0.0476074
-0.0463867
-0.0456238
-0.0444031
-0.0427246
-0.0410461
-0.0395203
-0.0382996
-0.0372314
-0.035553
-0.0350952
-0.03479
-0.0341797
-0.0343323
-0.03479
-0.03479
-0.0354004
-0.0346375
-0.0349426
-0.0346375
-0.0338745
-0.032959
-0.0315857
-0.0300598
-0.0286865
-0.0273132
-0.0256348
-0.0244141
-0.0233459
-0.0218201
-0.0213623
-0.0202942
-0.0198364
-0.0192261
-0.0189209
-0.0183105
-0.0183105
-0.0178528
-0.0175476
-0.0169373
-0.0167847
-0.015564
-0.0151062
-0.0144958
-0.0134277
-0.0131226
-0.0125122
-0.0123596
-0.0123596
-0.0126648
-0.0134277
-0.0144958
-0.0160217
-0.0170898
-0.0189209
-0.0204468
-0.0218201
-0.0233459
-0.0247192
-0.0259399
-0.0263977
-0.0270081
-0.0270081
-0.0265503
-0.0263977
-0.0253296
-0.0247192
-0.0238037
-0.0230408
-0.0228882
-0.022583
-0.0224304
-0.0228882
-0.0233459
-0.0241089
-0.025177
-0.0254822
-0.0262451
-0.0268555
-0.0268555
-0.0271606
-0.0268555
-0.0262451
-0.0257874
-0.0244141
-0.0234985
-0.0219727
-0.0210571
-0.0195312
-0.0184631
-0.0169373
-0.0158691
-0.0144958
-0.0131226
-0.0120544
-0.0108337
-0.00946045
-0.00732422
-0.00564575
-0.00366211
-0.000915527
0.00152588
0.00427246
0.00701904
0.00946045
0.0117493
0.0132751
0.0149536
0.0163269
0.0170898
0.0175476
0.017395
0.0177002
0.0177002
0.017395
0.0178528
0.0183105
0.0186157
0.0193787
0.0204468
0.0219727
0.0236511
0.0262451
0.0291443
0.032196
0.035553
0.0390625
0.042572
0.045929
0.0491333
0.0523376
0.0544739
0.0567627
0.0582886
0.0595093
0.0613403
0.0614929
0.0624084
0.0630188
0.0631714
0.0634766
0.0645447
0.0650024
0.0650024
0.0654602
0.0650024
0.0646973
0.0639343
0.0631714
0.0617981
0.0593567
0.0569153
0.0543213
0.0506592
0.0471497
0.043335
0.0392151
0.03479
0.0302124
0.0259399
0.0209045
0.0160217
0.0112915
0.00671387
0.00167847
-0.0038147
-0.00869751
-0.0143433
-0.0196838
-0.0253296
-0.0314331
-0.037384
-0.0431824
-0.0494385
-0.0550842
-0.0605774
-0.0656128
-0.0701904
-0.0743103
-0.0778198
-0.0804138
-0.08255
-0.0840759
-0.0848389
-0.0854492
-0.0856018
-0.0852966
-0.085144
-0.0843811
-0.0839233
-0.083313
-0.0837708
-0.0837708
-0.0837708
-0.0843811
-0.0846863
-0.0849915
-0.085144
-0.0857544
-0.0852966
-0.0852966
-0.0846863
-0.0837708
-0.083313
-0.0827026
-0.0816345
-0.0808716
-0.0799561
-0.0791931
-0.0785828
-0.0784302
-0.0779724
-0.078125
-0.078125
-0.0782776
-0.0782776
-0.0778198
-0.0776672
-0.0775146
-0.0769043
-0.0765991
-0.0750732
-0.0741577
-0.072937
-0.0717163
-0.0706482
-0.0697327
-0.068512
-0.0675964
-0.0665283
-0.0662231
-0.0648499
-0.0646973
-0.0648499
-0.0643921
-0.0648499
-0.0645447
-0.0643921
-0.0640869
-0.0622559
-0.0601196
-0.0563049
-0.0511169
-0.0439453
-0.0358582
-0.0254822
-0.0131226
0.00152588
0.0190735
0.039978
0.0645447
0.0942993
0.128784
0.168457
0.212555
0.260773
0.3125
0.366974
0.422821
0.479736
0.537872
0.596161
0.653687
0.709229
0.761261
0.808105
0.847626
0.879517
0.901184
0.912018
0.911255
0.898743
0.874634
0.83847
0.791168
0.733948
0.666656
0.592194
0.509644
0.422516
0.331726
0.2388
0.145874
0.0547791
-0.0332642
-0.115662
-0.192261
-0.260468
-0.319824
-0.370636
-0.411224
-0.441589
-0.462494
-0.474091
-0.475922
-0.469666
-0.45578
-0.435638
-0.410309
-0.380402
-0.348053
-0.313721
-0.278778
-0.244141
-0.211487
-0.181122
-0.153351
-0.128784
-0.1091
-0.092926
-0.080719
-0.0726318
-0.0680542
-0.0668335
-0.0682068
-0.0714111
-0.0764465
-0.0823975
-0.0891113
-0.0959778
-0.102234
-0.108337
-0.11322
-0.117798
-0.121307
-0.123596
-0.125427
-0.126038
-0.125885
-0.125885
-0.125122
-0.124054
-0.122528
-0.121155
-0.119476
-0.118103
-0.115967
-0.113678
-0.112152
-0.110016
-0.108185
-0.105743
-0.10376
-0.101624
-0.0997925
-0.0976562
-0.096283
-0.0953674
-0.0939941
-0.0933838
-0.092926
-0.0932312
-0.0933838
-0.0935364
-0.093689
-0.0944519
-0.0946045
-0.0944519
-0.0947571
-0.0944519
-0.0938416
-0.0932312
-0.0921631
-0.090332
-0.0886536
-0.0872803
-0.0854492
-0.0839233
-0.0820923
-0.080719
-0.0799561
-0.0787354
-0.0785828
-0.0779724
-0.0775146
-0.0775146
-0.0765991
-0.0762939
-0.0756836
-0.0749207
-0.0740051
-0.0726318
-0.0714111
-0.0695801
-0.067749
-0.065918
-0.0640869
-0.0621033
-0.0604248
-0.0588989
-0.0576782
-0.0563049
-0.0552368
-0.0543213
-0.052948
-0.0523376
-0.0509644
-0.0495911
-0.0483704
-0.0466919
-0.0448608
-0.0424194
-0.0401306
-0.0375366
-0.0346375
-0.0320435
-0.0289917
-0.0267029
-0.0245667
-0.0221252
-0.0201416
-0.0186157
-0.017395
-0.0158691
-0.0151062
-0.0138855
-0.01297
-0.0115967
-0.010376
-0.00915527
-0.00717163
-0.00473022
-0.00259399
0.000152588
0.00305176
0.00595093
0.00900269
0.0119019
0.0141907
0.0172424
0.0196838
0.0213623
0.0238037
0.0260925
0.0279236
0.0302124
0.0323486
0.0343323
0.0369263
0.0387573
0.0413513
0.0440979
0.0471497
0.0497437
0.0531006
0.0563049
0.0592041
0.0617981
0.0643921
0.0665283
0.0686646
0.0698853
0.0712585
0.0717163
0.0726318
0.0727844
0.0737
0.0741577
0.0750732
0.0759888
0.0765991
0.0778198
0.0791931
0.0810242
0.08255
0.0840759
0.0854492
0.0871277
0.0883484
0.0889587
0.0894165
0.0894165
0.0895691
0.0889587
0.0883484
0.0874329
0.0868225
0.0856018
0.0849915
0.0837708
0.0834656
0.0830078
0.0819397
0.0817871
0.0816345
0.0805664
0.0802612
0.0788879
0.0779724
0.0765991
0.0749207
0.072937
0.0709534
0.0688171
0.0666809
0.0642395
0.0624084
0.06073
0.0587463
0.0570679
0.0553894
0.0541687
0.0531006
0.0517273
0.0506592
0.0486755
0.0474548
0.0454712
0.0434875
0.0408936
0.0384521
0.0350952
0.0317383
0.0273132
0.0233459
0.0187683
0.0144958
0.0100708
0.00595093
0.00198364
-0.00198364
-0.00534058
-0.0088501
-0.012207
-0.0152588
-0.0186157
-0.0212097
-0.0241089
-0.0271606
-0.0302124
-0.0334167
-0.0366211
-0.0396729
-0.0428772
-0.0462341
-0.0489807
-0.0518799
-0.0543213
-0.0570679
-0.0587463
-0.0602722
-0.0613403
-0.0619507
-0.0627136
-0.0628662
-0.0631714
-0.0631714
-0.0636292
-0.0639343
-0.0645447
-0.0653076
-0.0665283
-0.0679016
-0.0695801
-0.0714111
-0.0733948
-0.0750732
-0.0764465
-0.078125
-0.0798035
-0.0805664
-0.0811768
-0.0823975
-0.0828552
-0.0823975
-0.08255
-0.08255
-0.0823975
-0.0822449
-0.0816345
-0.0814819
-0.0817871
-0.0814819
-0.0816345
-0.0816345
-0.0816345
-0.0810242
-0.0805664
-0.0798035
-0.0791931
-0.0779724
-0.0764465
-0.0746155
-0.072937
-0.0712585
-0.0694275
-0.0682068
-0.0671387
-0.0654602
-0.0650024
-0.0648499
-0.0648499
-0.0653076
-0.065918
-0.0665283
-0.0674438
-0.0679016
-0.0686646
-0.0692749
-0.0697327
-0.0697327
-0.0689697
-0.0692749
-0.0680542
-0.0669861
-0.065918
-0.0645447
-0.0630188
-0.0619507
-0.0604248
-0.0598145
-0.0588989
-0.0585938
-0.0579834
-0.0575256
-0.057373
-0.0572205
-0.0569153
-0.0561523
-0.055542
-0.0547791
-0.0541687
-0.052948
-0.0523376
-0.0508118
-0.0494385
-0.0485229
-0.0476074
-0.0468445
-0.045929
-0.0456238
-0.0453186
-0.0454712
-0.0457764
-0.0457764
-0.0460815
-0.045929
-0.0460815
-0.0460815
-0.045929
-0.0450134
-0.0440979
-0.0430298
-0.0415039
-0.0401306
-0.0386047
-0.0370789
-0.0364685
-0.0350952
-0.0344849
-0.0341797
-0.0340271
-0.0340271
-0.0343323
-0.0344849
-0.0350952
-0.035553
-0.0361633
-0.0367737
-0.0369263
-0.0364685
-0.0364685
-0.0361633
-0.0354004
-0.0349426
-0.0343323
-0.0335693
-0.0326538
-0.0323486
-0.0328064
-0.0326538
-0.0332642
-0.0338745
-0.03479
-0.035553
-0.0361633
-0.0367737
-0.037384
-0.038147
-0.0384521
-0.0390625
-0.0384521
-0.0378418
-0.0376892
-0.037384
-0.0367737
-0.0360107
-0.0357056
-0.0354004
-0.0352478
-0.035553
-0.0357056
-0.0361633
-0.0376892
-0.0384521
-0.0390625
-0.039978
-0.0405884
-0.0416565
-0.0419617
-0.0422668
-0.0427246
-0.0430298
-0.0427246
-0.0428772
-0.0428772
-0.0422668
-0.0422668
-0.0418091
-0.0415039
-0.0416565
-0.0419617
-0.0418091
-0.0419617
-0.0419617
-0.0416565
-0.0413513
-0.0404358
-0.0392151
-0.0379944
-0.0361633
-0.0337219
-0.0311279
-0.0285339
-0.0256348
-0.0222778
-0.0190735
-0.0160217
-0.01297
-0.0102234
-0.00762939
-0.00595093
-0.00442505
-0.00305176
-0.00183105
-0.00106812
0.000610352
0.00183105
0.00335693
0.00564575
0.00793457
0.0106812
0.0137329
0.0167847
0.019989
0.0228882
0.0259399
0.0292969
0.0318909
0.03479
0.0370789
0.0393677
0.040741
0.0424194
0.0440979
0.0456238
0.0466919
0.0471497
0.0482178
0.0486755
0.0500488
0.0505066
0.0512695
0.0517273
0.0524902
0.0526428
0.052948
0.052948
0.0524902
0.0514221
0.0506592
0.0488281
0.0466919
0.0444031
0.0413513
0.0386047
0.0352478
0.0314331
0.0279236
0.0244141
0.0204468
0.0166321
0.0137329
0.00930786
0.00549316
0.00152588
-0.00305176
-0.00762939
-0.0125122
-0.018158
-0.0234985
-0.0294495
-0.0357056
-0.0413513
-0.04776
-0.052948
-0.0584412
-0.0630188
-0.067749
-0.0715637
-0.0753784
-0.0779724
-0.0798035
-0.0816345
-0.0828552
-0.0840759
-0.085144
-0.0857544
-0.0865173
-0.0871277
-0.0878906
-0.0894165
-0.090332
-0.0917053
-0.0930786
-0.0938416
-0.0950623
-0.0959778
-0.0967407
-0.0970459
-0.0967407
-0.0965881
-0.0959778
-0.0953674
-0.0942993
-0.0932312
-0.0915527
-0.0906372
-0.0895691
-0.0883484
-0.0875854
-0.0875854
-0.0874329
-0.0874329
-0.087738
-0.0880432
-0.0886536
-0.0892639
-0.0900269
-0.090332
-0.0909424
-0.0909424
-0.0912476
-0.0917053
-0.0917053
-0.0918579
-0.0924683
-0.092926
-0.093689
-0.0944519
-0.0950623
-0.096283
-0.0975037
-0.0985718
-0.098877
-0.0991821
-0.0993347
-0.0991821
-0.0990295
-0.098877
-0.0979614
-0.0967407
-0.0953674
-0.0924683
-0.0891113
-0.0840759
-0.0784302
-0.071106
-0.062561
-0.0524902
-0.0408936
-0.0276184
-0.0117493
0.00701904
0.0291443
0.0552368
0.0871277
0.122986
0.16449
0.210266
0.259552
0.311127
0.364532
0.419922
0.475616
0.531921
0.588379
0.642853
0.694427
0.742798
0.78476
0.82016
0.846863
0.864105
0.87204
0.868683
0.854797
0.82962
0.793762
0.747986
0.693054
0.629578
0.558777
0.481262
0.398865
0.31311
0.225372
0.137024
0.0502014
-0.0338745
-0.113831
-0.187836
-0.255127
-0.314178
-0.364227
-0.40451
-0.435028
-0.456543
-0.468445
-0.470581
-0.464783
-0.451355
-0.431519
-0.406342
-0.377197
-0.344543
-0.310364
-0.275269
-0.240784
-0.207825
-0.177002
-0.148926
-0.124512
-0.103607
-0.0860596
-0.0723267
-0.0616455
-0.0546265
-0.0502014
-0.0485229
-0.0489807
-0.0508118
-0.0535583
-0.057373
-0.0614929
-0.0663757
-0.0708008
-0.0753784
-0.0788879
-0.08255
-0.0854492
-0.0881958
-0.0901794
-0.0917053
-0.0926208
-0.0930786
-0.0927734
-0.0924683
-0.0917053
-0.0907898
-0.0891113
-0.087738
-0.0857544
-0.083313
-0.0819397
-0.0802612
-0.0788879
-0.0779724
-0.0772095
-0.0762939
-0.0759888
-0.0762939
-0.0762939
-0.0765991
-0.0765991
-0.0769043
-0.0764465
-0.0759888
-0.075531
-0.0744629
-0.0733948
-0.0717163
-0.0698853
-0.0674438
-0.0653076
-0.0627136
-0.059967
-0.057373
-0.0553894
-0.052948
-0.0511169
-0.0495911
-0.0482178
-0.0473022
-0.0462341
-0.0457764
-0.0450134
-0.0439453
-0.043335
-0.0424194
-0.0408936
-0.0396729
-0.038147
-0.0363159
-0.0346375
-0.032959
-0.0311279
-0.0292969
-0.0274658
-0.0262451
-0.025177
-0.0241089
-0.0238037
-0.0230408
-0.0231934
-0.0230408
-0.0230408
-0.022583
-0.0224304
-0.0215149
-0.0205994
-0.0195312
-0.0183105
-0.0166321
-0.0146484
-0.0126648
-0.0108337
-0.0088501
-0.00671387
-0.00518799
-0.00366211
-0.00259399
-0.0012207
-0.000457764
0.000915527
0.00183105
0.00305176
0.00427246
0.00564575
0.00686646
0.0088501
0.0109863
0.0128174
0.0151062
0.0175476
0.0198364
0.0221252
0.0244141
0.0267029
0.0285339
0.030365
0.0318909
0.032959
0.0346375
0.035553
0.0372314
0.0382996
0.0396729
0.0410461
0.0427246
0.0450134
0.0474548
0.0498962
0.0524902
0.0550842
0.0576782
0.059967
0.0624084
0.0642395
0.0657654
0.0669861
0.0675964
0.0680542
0.068512
0.068512
0.0683594
0.0682068
0.067749
0.0675964
0.0675964
0.0679016
0.068512
0.0689697
0.0700378
0.0709534
0.0717163
0.0726318
0.072937
0.0737
0.0737
0.0746155
0.0737
0.0727844
0.0720215
0.0709534
0.0698853
0.0689697
0.0675964
0.0671387
0.0662231
0.0653076
0.0646973
0.0643921
0.0636292
0.0630188
0.062561
0.0616455
0.0610352
0.0601196
0.0587463
0.0572205
0.055542
0.0532532
0.0514221
0.0485229
0.0460815
0.0437927
0.0413513
0.0393677
0.0375366
0.0352478
0.0338745
0.0325012
0.0311279
0.0302124
0.0292969
0.0280762
0.0273132
0.0256348
0.0241089
0.0222778
0.0198364
0.0170898
0.0138855
0.0106812
0.00701904
0.00350952
0.000152588
-0.00305176
-0.0062561
-0.00961304
-0.0128174
-0.0157166
-0.0186157
-0.0213623
-0.0236511
-0.0270081
-0.0297546
-0.032959
-0.0360107
-0.0390625
-0.0428772
-0.0463867
-0.0497437
-0.0535583
-0.0566101
-0.0602722
-0.063324
-0.0657654
-0.068512
-0.0704956
-0.0721741
-0.0735474
-0.0743103
-0.0750732
-0.0758362
-0.0764465
-0.0767517
-0.0773621
-0.0779724
-0.0790405
-0.080719
-0.0816345
-0.0828552
-0.0843811
-0.0860596
-0.0875854
-0.088501
-0.0901794
-0.0915527
-0.0923157
-0.0932312
-0.0939941
-0.0938416
-0.0949097
-0.0950623
-0.09552
-0.0956726
-0.0959778
-0.0965881
-0.0971985
-0.098114
-0.098877
-0.0999451
-0.101166
-0.101624
-0.102539
-0.103302
-0.103607
-0.104218
-0.10376
-0.103455
-0.102234
-0.101013
-0.0993347
-0.0979614
-0.0964355
-0.0946045
-0.0924683
-0.0909424
-0.0897217
-0.0886536
-0.0872803
-0.0862122
-0.0857544
-0.0846863
-0.0834656
-0.0828552
-0.0819397
-0.0808716
-0.0796509
-0.0785828
-0.0769043
-0.0756836
-0.0741577
-0.072937
-0.0721741
-0.0708008
-0.0697327
-0.0692749
-0.0688171
-0.0686646
-0.0691223
-0.0695801
-0.0697327
-0.0700378
-0.0698853
-0.0697327
-0.0694275
-0.068512
-0.0675964
-0.0657654
-0.0637817
-0.0616455
-0.0593567
-0.0567627
-0.0543213
-0.0518799
-0.0492859
-0.0469971
-0.045166
-0.0434875
-0.0422668
-0.0411987
-0.0405884
-0.0398254
-0.0393677
-0.0379944
-0.0378418
-0.0370789
-0.0360107
-0.03479
-0.0332642
-0.0323486
-0.0311279
-0.0299072
-0.0294495
-0.0288391
-0.0285339
-0.0283813
-0.0285339
-0.0288391
-0.0289917
-0.0297546
-0.0302124
-0.0299072
-0.030365
-0.0308228
-0.0305176
-0.0305176
-0.0296021
-0.0285339
-0.0268555
-0.0254822
-0.0236511
-0.0218201
-0.0202942
-0.0178528
-0.0161743
-0.0144958
-0.0134277
-0.01297
-0.012207
-0.01297
-0.0126648
-0.0132751
-0.0134277
-0.0143433
-0.0144958
-0.0146484
-0.014801
-0.0146484
-0.0146484
-0.0140381
-0.0138855
-0.0134277
-0.0132751
-0.0131226
-0.0131226
-0.0138855
-0.0144958
-0.0152588
-0.0163269
-0.018158
-0.0189209
-0.020752
-0.0218201
-0.0230408
-0.0244141
-0.0253296
-0.0256348
-0.0262451
-0.0259399
-0.0254822
-0.0248718
-0.0236511
-0.0224304
-0.0209045
-0.0190735
-0.0172424
-0.0154114
-0.0140381
-0.0119019
-0.0102234
-0.00823975
-0.0062561
-0.00411987
-0.00198364
0.000610352
0.00320435
0.00579834
0.00854492
0.0119019
0.0149536
0.0178528
0.0209045
0.0230408
0.0248718
0.0265503
0.0282288
0.0289917
0.0296021
0.0300598
0.0305176
0.0309753
0.0317383
0.0326538
0.0334167
0.0344849
0.0361633
0.0379944
0.0396729
0.0421143
0.0453186
0.0480652
0.0511169
0.0549316
0.0572205
0.06073
0.0636292
0.0662231
0.0679016
0.0694275
0.0708008
0.0717163
0.0720215
0.072937
0.0727844
0.0726318
0.0726318
0.0726318
0.072937
0.0733948
0.0735474
0.0738525
0.0740051
0.0738525
0.0737
0.0732422
0.0717163
0.0700378
0.0679016
0.0648499
0.0619507
0.0584412
0.0547791
0.0506592
0.0463867
0.0418091
0.0376892
0.0334167
0.0289917
0.0244141
0.019989
0.0154114
0.0108337
0.00595093
0.0012207
-0.00411987
-0.00900269
-0.014801
-0.020752
-0.0260925
-0.0315857
-0.037384
-0.0427246
-0.0474548
-0.0524902
-0.0563049
-0.0601196
-0.0628662
-0.0656128
-0.0674438
-0.0691223
-0.0698853
-0.0706482
-0.0712585
-0.0715637
-0.0720215
-0.0720215
-0.0726318
-0.0733948
-0.0735474
-0.0738525
-0.0746155
-0.0747681
-0.0758362
-0.0759888
-0.0765991
-0.0770569
-0.0776672
-0.0773621
-0.0778198
-0.0772095
-0.0767517
-0.0762939
-0.0758362
-0.0756836
-0.0749207
-0.0747681
-0.0746155
-0.0747681
-0.0749207
-0.075531
-0.0756836
-0.0765991
-0.0769043
-0.0779724
-0.0785828
-0.0790405
-0.0788879
-0.0788879
-0.0787354
-0.078125
-0.0773621
-0.0764465
-0.0753784
-0.0749207
-0.0741577
-0.0733948
-0.0732422
-0.0727844
-0.072937
-0.0737
-0.0740051
-0.0744629
-0.0750732
-0.0749207
-0.0738525
-0.0718689
-0.0680542
-0.063324
-0.0564575
-0.0479126
-0.0372314
-0.0245667
-0.00946045
0.00869751
0.0305176
0.0564575
0.0869751
0.122528
0.164185
0.210571
0.261688
0.31601
0.373688
0.433044
0.493774
0.555878
0.617523
0.679321
0.739441
0.796509
0.848846
0.894623
0.93277
0.961151
0.979156
0.98526
0.979309
0.960693
0.929871
0.887299
0.833435
0.76889
0.695648
0.614014
0.525818
0.432129
0.335236
0.237732
0.140533
0.0450134
-0.0454712
-0.130768
-0.208893
-0.278931
-0.339661
-0.390625
-0.431366
-0.462952
-0.483551
-0.495148
-0.496521
-0.48996
-0.475769
-0.455017
-0.42923
-0.398865
-0.365448
-0.330658
-0.294647
-0.259247
-0.225677
-0.194092
-0.166016
-0.140991
-0.120087
-0.102844
-0.0901794
-0.0814819
-0.0762939
-0.0738525
-0.0744629
-0.0769043
-0.0810242
-0.0865173
-0.0926208
-0.098877
-0.104675
-0.110168
-0.114594
-0.118256
-0.120697
-0.122986
-0.123596
-0.124054
-0.123291
-0.122375
-0.121002
-0.119171
-0.117645
-0.115509
-0.113373
-0.111237
-0.109253
-0.107269
-0.105438
-0.103455
-0.101471
-0.0990295
-0.0973511
-0.09552
-0.093689
-0.0921631
-0.0901794
-0.0894165
-0.0886536
-0.0874329
-0.0869751
-0.0862122
-0.0863647
-0.0860596
-0.0857544
-0.0856018
-0.085144
-0.0840759
-0.0836182
-0.0827026
-0.0813293
-0.0796509
-0.0775146
-0.0753784
-0.0738525
-0.0714111
-0.0695801
-0.0675964
-0.0654602
-0.0640869
-0.062561
-0.0617981
-0.06073
-0.0605774
-0.059967
-0.0590515
-0.0585938
-0.0576782
-0.0570679
-0.0559998
-0.0543213
-0.0526428
-0.0508118
-0.0485229
-0.0466919
-0.0440979
-0.0419617
-0.0398254
-0.0378418
-0.035553
-0.0337219
-0.0323486
-0.0312805
-0.030365
-0.0296021
-0.0288391
-0.0280762
-0.0276184
-0.0270081
-0.0262451
-0.0247192
-0.0228882
-0.0212097
-0.0198364
-0.017395
-0.0154114
-0.0131226
-0.0115967
-0.00946045
-0.00762939
-0.0062561
-0.00473022
-0.00350952
-0.00274658
-0.00167847
-0.00106812
-0.000457764
0.000305176
0.000762939
0.00198364
0.00350952
0.00488281
0.00686646
0.00900269
0.0114441
0.0132751
0.0154114
0.0177002
0.0196838
0.0212097
0.0228882
0.0239563
0.0250244
0.0257874
0.0267029
0.0274658
0.0285339
0.0292969
0.0309753
0.0317383
0.0337219
0.0354004
0.0378418
0.0393677
0.0418091
0.0444031
0.0468445
0.0491333
0.0514221
0.0531006
0.0546265
0.0561523
0.0569153
0.0575256
0.0582886
0.0584412
0.0588989
0.0590515
0.0598145
0.0604248
0.06073
0.0614929
0.0624084
0.0636292
0.0643921
0.0650024
0.0660706
0.0660706
0.0662231
0.0663757
0.0657654
0.0653076
0.0639343
0.0627136
0.0611877
0.0598145
0.058136
0.0566101
0.0549316
0.0534058
0.0523376
0.0512695
0.0497437
0.0489807
0.0482178
0.0473022
0.0466919
0.0453186
0.0442505
0.0436401
0.0419617
0.0398254
0.038147
0.0361633
0.0341797
0.0314331
0.0296021
0.0273132
0.0248718
0.0228882
0.0212097
0.0198364
0.0178528
0.0166321
0.0151062
0.0140381
0.0125122
0.0105286
0.00869751
0.0062561
0.0038147
0.000457764
-0.00289917
-0.00671387
-0.0109863
-0.0151062
-0.0187683
-0.0227356
-0.0273132
-0.0309753
-0.0349426
-0.0382996
-0.0415039
-0.0450134
-0.0482178
-0.0512695
-0.0538635
-0.0572205
-0.0598145
-0.0630188
-0.0663757
-0.0694275
-0.0721741
-0.0758362
-0.0790405
-0.0819397
-0.0849915
-0.0872803
-0.0901794
-0.0920105
-0.0939941
-0.0947571
-0.09552
-0.0959778
-0.0961304
-0.096283
-0.0964355
-0.0959778
-0.0958252
-0.096283
-0.0964355
-0.0967407
-0.0975037
-0.0979614
-0.0987244
-0.0997925
-0.100555
-0.101318
-0.102234
-0.102539
-0.102844
-0.102844
-0.102844
-0.102386
-0.101776
-0.101624
-0.101166
-0.100708
-0.100555
-0.100098
-0.100403
-0.100403
-0.101166
-0.102081
-0.102692
-0.103607
-0.103912
-0.104675
-0.104523
-0.10498
-0.10498
-0.104065
-0.103149
-0.101929
-0.101013
-0.0997925
-0.0985718
-0.0975037
-0.0967407
-0.0961304
-0.0958252
-0.0959778
-0.0959778
-0.096283
-0.0971985
-0.0976562
-0.0982666
-0.0991821
-0.0997925
-0.100708
-0.100403
-0.10025
-0.100098
-0.0996399
-0.0993347
-0.0982666
-0.0971985
-0.0965881
-0.0956726
-0.0946045
-0.0938416
-0.093689
-0.092926
-0.0924683
-0.0921631
-0.0914001
-0.0906372
-0.0897217
-0.0889587
-0.0880432
-0.0862122
-0.0843811
-0.0822449
-0.0802612
-0.0779724
-0.0753784
-0.0733948
-0.0715637
-0.0692749
-0.0680542
-0.0665283
-0.0660706
-0.0653076
-0.0650024
-0.0653076
-0.0654602
-0.0650024
-0.0653076
-0.065155
-0.0645447
-0.0637817
-0.0630188
-0.0619507
-0.0608826
-0.0593567
-0.0579834
-0.0566101
-0.0550842
-0.0537109
-0.0523376
-0.0512695
-0.0505066
-0.0497437
-0.0492859
-0.0486755
-0.0485229
-0.0479126
-0.0480652
-0.0471497
-0.0466919
-0.0462341
-0.0453186
-0.0442505
-0.043335
-0.0418091
-0.0408936
-0.039978
-0.0389099
-0.038147
-0.037384
-0.0372314
-0.0372314
-0.0372314
-0.0376892
-0.0378418
-0.0386047
-0.0389099
-0.0393677
-0.0396729
-0.0395203
-0.0395203
-0.0389099
-0.0382996
-0.0370789
-0.0364685
-0.035553
-0.03479
-0.0335693
-0.0326538
-0.032196
-0.0314331
-0.0312805
-0.0315857
-0.0311279
-0.0308228
-0.0308228
-0.0302124
-0.0297546
-0.0285339
-0.0273132
-0.0256348
-0.0231934
-0.0210571
-0.0186157
-0.0157166
-0.0128174
-0.00991821
-0.00732422
-0.00534058
-0.00289917
-0.000915527
-0.000457764
0.000610352
0.000915527
0.000915527
0.00106812
0.00106812
0.000762939
0.0012207
0.00152588
0.00274658
0.00396729
0.00549316
0.00778198
0.0100708
0.0123596
0.0154114
0.0180054
0.020752
0.0231934
0.0259399
0.0282288
0.0305176
0.032959
0.0346375
0.0361633
0.038147
0.0396729
0.0404358
0.0416565
0.0428772
0.0439453
0.0445557
0.045166
0.0457764
0.045929
0.0462341
0.0456238
0.0454712
0.0450134
0.0437927
0.0422668
0.0404358
0.0392151
0.0367737
0.0344849
0.0318909
0.0294495
0.0270081
0.0241089
0.0210571
0.0180054
0.0151062
0.0119019
0.00839233
0.00488281
0.000610352
-0.00366211
-0.00854492
-0.0138855
-0.0195312
-0.0260925
-0.0328064
-0.0401306
-0.0473022
-0.0541687
-0.0614929
-0.0683594
-0.0747681
-0.0808716
-0.0866699
-0.0917053
-0.0961304
-0.0994873
-0.102997
-0.105743
-0.108337
-0.110474
-0.112152
-0.113983
-0.115967
-0.117188
-0.118256
-0.119629
-0.120239
-0.121002
-0.121765
-0.121613
-0.121613
-0.121307
-0.120544
-0.119324
-0.118256
-0.117035
-0.115356
-0.113831
-0.112152
-0.111237
-0.110168
-0.109406
-0.10849
-0.10849
-0.108337
-0.10849
-0.10849
-0.10849
-0.108795
-0.1091
-0.1091
-0.1091
-0.108795
-0.10788
-0.106964
-0.105591
-0.104065
-0.102234
-0.100555
-0.098877
-0.0971985
-0.0959778
-0.0939941
-0.0927734
-0.0915527
-0.0906372
-0.0897217
-0.088501
-0.0869751
-0.0854492
-0.0840759
-0.0823975
-0.0808716
-0.0793457
-0.0779724
-0.0762939
-0.0749207
-0.0732422
-0.0706482
-0.067749
-0.0642395
-0.0590515
-0.0532532
-0.0456238
-0.0364685
-0.0250244
-0.0114441
0.00579834
0.0270081
0.0521851
0.083313
0.120697
0.163879
0.213318
0.267487
0.325317
0.386658
0.449677
0.514069
0.579376
0.644226
0.708466
0.770569
0.8284
0.880432
0.926361
0.96283
0.98999
1.00601
1.00952
1.00067
0.979919
0.945892
0.900879
0.844116
0.777435
0.701141
0.61676
0.526123
0.43045
0.331268
0.231628
0.132599
0.0360107
-0.0559998
-0.141907
-0.220032
-0.288391
-0.347748
-0.396729
-0.434265
-0.461273
-0.477753
-0.483551
-0.480042
-0.467987
-0.448608
-0.423431
-0.393524
-0.359802
-0.323944
-0.288391
-0.252838
-0.218811
-0.187225
-0.158691
-0.13382
-0.11322
-0.0961304
-0.0830078
-0.0740051
-0.0680542
-0.0654602
-0.0654602
-0.0672913
-0.0709534
-0.0762939
-0.0820923
-0.0883484
-0.0949097
-0.101624
-0.107727
-0.113525
-0.118256
-0.122833
-0.125885
-0.128479
-0.130005
-0.130615
-0.130463
-0.129547
-0.127716
-0.125275
-0.12207
-0.119019
-0.114899
-0.110931
-0.106964
-0.103302
-0.0994873
-0.0964355
-0.092926
-0.090332
-0.0881958
-0.0863647
-0.0854492
-0.0842285
-0.0836182
-0.0828552
-0.0823975
-0.0819397
-0.0813293
-0.0808716
-0.0796509
-0.0787354
-0.0773621
-0.0761414
-0.0749207
-0.0732422
-0.0717163
-0.070343
-0.0695801
-0.068512
-0.0675964
-0.0669861
-0.0666809
-0.0668335
-0.0663757
-0.0663757
-0.0663757
-0.0657654
-0.0650024
-0.0642395
-0.063324
-0.0617981
-0.06073
-0.0588989
-0.0572205
-0.0556946
-0.0535583
-0.0523376
-0.0506592
-0.0497437
-0.0483704
-0.0474548
-0.0471497
-0.045929
-0.0453186
-0.0442505
-0.0431824
-0.0419617
-0.0405884
-0.0389099
-0.0367737
-0.0346375
-0.0318909
-0.0291443
-0.0263977
-0.0239563
-0.0213623
-0.0190735
-0.0167847
-0.0152588
-0.0131226
-0.0114441
-0.0100708
-0.00869751
-0.00732422
-0.00610352
-0.00473022
-0.00350952
-0.00167847
-0.000152588
0.00183105
0.00411987
0.00610352
0.00869751
0.0105286
0.0126648
0.014801
0.0166321
0.0183105
0.0195312
0.020752
0.0215149
0.0216675
0.0221252
0.022583
0.0228882
0.0227356
0.0234985
0.0239563
0.0248718
0.0263977
0.0279236
0.0297546
0.0323486
0.0341797
0.0369263
0.0390625
0.0413513
0.0436401
0.0457764
0.0474548
0.0491333
0.0509644
0.0520325
0.0531006
0.0544739
0.0556946
0.0566101
0.058136
0.0593567
0.0611877
0.062561
0.0645447
0.0662231
0.0679016
0.0692749
0.0704956
0.0712585
0.0721741
0.0721741
0.0726318
0.0720215
0.0715637
0.0709534
0.0701904
0.0691223
0.068512
0.0675964
0.0666809
0.0663757
0.0662231
0.0665283
0.0662231
0.0665283
0.0665283
0.0665283
0.0663757
0.0656128
0.0653076
0.0642395
0.0631714
0.0616455
0.0601196
0.058136
0.0564575
0.0547791
0.0526428
0.0508118
0.0494385
0.0480652
0.0473022
0.045929
0.0456238
0.0450134
0.0442505
0.0434875
0.0428772
0.0419617
0.0404358
0.0396729
0.0376892
0.035553
0.0332642
0.0308228
0.0285339
0.0253296
0.022583
0.0198364
0.0169373
0.0141907
0.0112915
0.00869751
0.00671387
0.00427246
0.00259399
0.000457764
-0.00183105
-0.00411987
-0.00656128
-0.00961304
-0.0126648
-0.0158691
-0.0193787
-0.0231934
-0.0268555
-0.0302124
-0.0334167
-0.0369263
-0.0401306
-0.042572
-0.0454712
-0.0476074
-0.0494385
-0.0517273
-0.0541687
-0.0559998
-0.0578308
-0.0601196
-0.0621033
-0.0643921
-0.0671387
-0.0698853
-0.0727844
-0.0756836
-0.078125
-0.0808716
-0.0827026
-0.0848389
-0.0865173
-0.0874329
-0.0878906
-0.0883484
-0.0881958
-0.0880432
-0.0869751
-0.0863647
-0.0852966
-0.0840759
-0.0830078
-0.0820923
-0.0813293
-0.080719
-0.0799561
-0.0799561
-0.0794983
-0.0790405
-0.0787354
-0.078125
-0.0776672
-0.0767517
-0.0756836
-0.0747681
-0.0730896
-0.0721741
-0.0701904
-0.0691223
-0.0679016
-0.0663757
-0.0657654
-0.0648499
-0.0645447
-0.0643921
-0.0645447
-0.0642395
-0.0645447
-0.0645447
-0.0645447
-0.0642395
-0.0640869
-0.0639343
-0.0627136
-0.0613403
-0.0605774
-0.0593567
-0.058136
-0.0563049
-0.0553894
-0.0537109
-0.0531006
-0.0518799
-0.0515747
-0.0509644
-0.0509644
-0.0509644
-0.0508118
-0.0505066
-0.0505066
-0.0500488
-0.0495911
-0.0485229
-0.0474548
-0.0465393
-0.0448608
-0.0434875
-0.0418091
-0.0402832
-0.0390625
-0.0375366
-0.0364685
-0.0358582
-0.0352478
-0.0349426
-0.0346375
-0.0344849
-0.0344849
-0.0346375
-0.0341797
-0.0337219
-0.0332642
-0.0320435
-0.0305176
-0.0288391
-0.0271606
-0.0250244
-0.0231934
-0.0209045
-0.0187683
-0.0167847
-0.0144958
-0.01297
-0.0115967
-0.0105286
-0.00946045
-0.00900269
-0.00854492
-0.00839233
-0.00793457
-0.00762939
-0.00717163
-0.00671387
-0.00610352
-0.00534058
-0.00411987
-0.00335693
-0.00228882
-0.00152588
-0.000762939
-0.000305176
0.000152588
0.0
-0.000152588
-0.000457764
-0.00106812
-0.00152588
-0.00244141
-0.00274658
-0.00350952
-0.00366211
-0.00366211
-0.00396729
-0.00366211
-0.00305176
-0.00244141
-0.00167847
-0.000915527
-0.000610352
-0.000152588
0.000152588
0.0
0.000305176
-0.000610352
-0.000915527
-0.00213623
-0.00350952
-0.00488281
-0.00534058
-0.00701904
-0.00808716
-0.00915527
-0.0100708
-0.0100708
-0.0106812
-0.010376
-0.0102234
-0.00946045
-0.00915527
-0.0088501
-0.00762939
-0.00686646
-0.0062561
-0.00534058
-0.00457764
-0.0038147
-0.00350952
-0.00213623
-0.00137329
0.000152588
0.0012207
0.00274658
0.00442505
0.00640869
0.00900269
0.0112915
0.0137329
0.0166321
0.0186157
0.0213623
0.0234985
0.0250244
0.0262451
0.0270081
0.027771
0.0282288
0.0286865
0.0289917
0.0292969
0.030365
0.0317383
0.0328064
0.0343323
0.0361633
0.0384521
0.0405884
0.0428772
0.045929
0.0486755
0.0509644
0.0541687
0.0564575
0.0585938
0.06073
0.0621033
0.0630188
0.0639343
0.0645447
0.0648499
0.0645447
0.0645447
0.0646973
0.0640869
0.0637817
0.0639343
0.0639343
0.0637817
0.0639343
0.063324
0.0628662
0.062561
0.0616455
0.059967
0.0582886
0.0558472
0.0531006
0.0500488
0.0465393
0.0431824
0.0396729
0.0354004
0.0315857
0.0273132
0.0233459
0.0196838
0.0151062
0.0106812
0.00549316
0.000305176
-0.00534058
-0.0109863
-0.0175476
-0.0238037
-0.030365
-0.0372314
-0.0439453
-0.0511169
-0.0576782
-0.0639343
-0.0697327
-0.0753784
-0.0808716
-0.0849915
-0.0889587
-0.0921631
-0.0947571
-0.0968933
-0.0984192
-0.0997925
-0.100861
-0.101318
-0.101776
-0.102081
-0.102539
-0.103607
-0.10437
-0.104828
-0.105591
-0.106201
-0.106659
-0.106659
-0.106812
-0.106812
-0.106354
-0.105133
-0.104523
-0.103912
-0.103149
-0.102386
-0.101471
-0.100708
-0.100098
-0.0991821
-0.0993347
-0.0993347
-0.0993347
-0.0993347
-0.0996399
-0.0993347
-0.0993347
-0.0990295
-0.098877
-0.0979614
-0.0968933
-0.0956726
-0.0944519
-0.0930786
-0.0920105
-0.0901794
-0.0892639
-0.0878906
-0.0866699
-0.0856018
-0.0846863
-0.0840759
-0.0834656
-0.0828552
-0.0817871
-0.0813293
-0.0814819
-0.0813293
-0.0808716
-0.0799561
-0.0784302
-0.0758362
-0.0724792
-0.0675964
-0.0617981
-0.0537109
-0.0450134
-0.0337219
-0.0205994
-0.00488281
0.0135803
0.0366211
0.062561
0.0946045
0.132141
0.174713
0.223083
0.274658
0.32959
0.388031
0.447235
0.507812
0.569611
0.630798
0.691071
0.748596
0.801697
0.848846
0.888367
0.919037
0.938873
0.947418
0.944214
0.928192
0.900574
0.860748
0.810242
0.748596
0.677643
0.598602
0.512848
0.421906
0.327606
0.231628
0.135498
0.0415039
-0.0479126
-0.132141
-0.209961
-0.278931
-0.339203
-0.389252
-0.429382
-0.459442
-0.478668
-0.487976
-0.488129
-0.480042
-0.463715
-0.440979
-0.413055
-0.380859
-0.346222
-0.309906
-0.27359
-0.238037
-0.204468
-0.173645
-0.146179
-0.122375
-0.102997
-0.087738
-0.0761414
-0.068512
-0.0642395
-0.0630188
-0.0642395
-0.0674438
-0.0720215
-0.0772095
-0.0831604
-0.0886536
-0.0935364
-0.0987244
-0.102997
-0.106506
-0.109406
-0.111542
-0.112915
-0.113525
-0.114441
-0.114288
-0.113831
-0.112915
-0.111694
-0.110474
-0.108795
-0.106659
-0.104828
-0.102539
-0.100098
-0.0978088
-0.0952148
-0.0924683
-0.090332
-0.0878906
-0.0860596
-0.0837708
-0.0822449
-0.0813293
-0.0802612
-0.0794983
-0.0788879
-0.0785828
-0.0778198
-0.0775146
-0.0765991
-0.0759888
-0.0749207
-0.0737
-0.0720215
-0.0701904
-0.0679016
-0.0657654
-0.063324
-0.0611877
-0.0592041
-0.0567627
-0.0546265
-0.052948
-0.0518799
-0.0508118
-0.0502014
-0.0495911
-0.0491333
-0.0483704
-0.0479126
-0.0474548
-0.0466919
-0.0457764
-0.0444031
-0.0428772
-0.0410461
-0.0390625
-0.0372314
-0.0354004
-0.0335693
-0.0314331
-0.0296021
-0.0280762
-0.0270081
-0.0256348
-0.0248718
-0.0239563
-0.0231934
-0.0224304
-0.0218201
-0.0202942
-0.0192261
-0.0178528
-0.0163269
-0.0143433
-0.0123596
-0.0105286
-0.00823975
-0.00595093
-0.00396729
-0.00183105
0.0
0.00167847
0.00320435
0.00411987
0.00488281
0.00610352
0.00701904
0.00762939
0.00915527
0.010376
0.0117493
0.0131226
0.0152588
0.0175476
0.0201416
0.0224304
0.0250244
0.0273132
0.0297546
0.0320435
0.0346375
0.0363159
0.0382996
0.0395203
0.0405884
0.0418091
0.0430298
0.0445557
0.045929
0.0468445
0.0486755
0.050354
0.0518799
0.0538635
0.0559998
0.058136
0.0605774
0.0627136
0.0648499
0.0669861
0.0691223
0.0704956
0.0723267
0.0732422
0.0744629
0.0749207
0.075531
0.0765991
0.0773621
0.0782776
0.0793457
0.0802612
0.0819397
0.083313
0.0849915
0.0874329
0.0895691
0.0912476
0.0933838
0.0949097
0.0968933
0.0979614
0.098877
0.0991821
0.0993347
0.0993347
0.0990295
0.0987244
0.0979614
0.0978088
0.0971985
0.0967407
0.0968933
0.0965881
0.0968933
0.0968933
0.0967407
0.0970459
0.0965881
0.0964355
0.09552
0.0944519
0.093689
0.0923157
0.0904846
0.0883484
0.0863647
0.0843811
0.0822449
0.0802612
0.0782776
0.0762939
0.0747681
0.072937
0.0714111
0.0694275
0.0674438
0.0653076
0.0631714
0.0604248
0.0575256
0.0538635
0.0502014
0.045929
0.0416565
0.037384
0.0320435
0.0270081
0.0218201
0.0172424
0.0119019
0.00717163
0.00274658
-0.00167847
-0.00549316
-0.00961304
-0.01297
-0.0169373
-0.0204468
-0.0241089
-0.0279236
-0.032196
-0.0360107
-0.0401306
-0.0445557
-0.0488281
-0.0527954
-0.0566101
-0.059967
-0.0637817
-0.0666809
-0.0694275
-0.0714111
-0.0730896
-0.0747681
-0.0761414
-0.0765991
-0.0778198
-0.0782776
-0.0791931
-0.0798035
-0.0805664
-0.0817871
-0.0828552
-0.0842285
-0.0857544
-0.0868225
-0.088501
-0.0895691
-0.0904846
-0.0909424
-0.0920105
-0.0923157
-0.0924683
-0.0921631
-0.0914001
-0.091095
-0.090332
-0.0898743
-0.0891113
-0.0886536
-0.0878906
-0.0880432
-0.0878906
-0.0883484
-0.0886536
-0.0886536
-0.088501
-0.088501
-0.088501
-0.0878906
-0.0872803
-0.0865173
-0.0854492
-0.0842285
-0.0828552
-0.0817871
-0.0801086
-0.0787354
-0.0779724
-0.0769043
-0.0764465
-0.0761414
-0.0761414
-0.0764465
-0.0767517
-0.0772095
-0.0769043
-0.0775146
-0.0773621
-0.0778198
-0.0775146
-0.0769043
-0.0761414
-0.0749207
-0.0735474
-0.0723267
-0.071106
-0.0692749
-0.0680542
-0.0669861
-0.0660706
-0.0654602
-0.065155
-0.0643921
-0.0642395
-0.0640869
-0.0637817
-0.0634766
-0.063324
-0.0627136
-0.0622559
-0.0613403
-0.0604248
-0.0593567
-0.0582886
-0.0567627
-0.0556946
-0.0547791
-0.0537109
-0.0527954
-0.0523376
-0.0517273
-0.0517273
-0.0520325
-0.0517273
-0.0521851
-0.0523376
-0.0526428
-0.0526428
-0.0521851
-0.0520325
-0.0517273
-0.0506592
-0.0495911
-0.0483704
-0.0469971
-0.0456238
-0.0444031
-0.0430298
-0.0422668
-0.0408936
-0.0405884
-0.0402832
-0.0402832
-0.0402832
-0.0404358
-0.0404358
-0.0401306
-0.0398254
-0.0392151
-0.0389099
-0.0379944
-0.0370789
-0.0358582
-0.0346375
-0.0334167
-0.0323486
-0.0309753
-0.0305176
-0.0291443
-0.0288391
-0.0288391
-0.0286865
-0.0289917
-0.0289917
-0.0297546
-0.0305176
-0.0309753
-0.0317383
-0.0320435
-0.0317383
-0.0318909
-0.0315857
-0.0311279
-0.030365
-0.0297546
-0.0294495
-0.0283813
-0.027771
-0.0274658
-0.0276184
-0.0276184
-0.0282288
-0.0292969
-0.0300598
-0.0312805
-0.0326538
-0.0337219
-0.0349426
-0.0358582
-0.0367737
-0.0375366
-0.037384
-0.0376892
-0.0376892
-0.0372314
-0.0372314
-0.0366211
-0.0361633
-0.0361633
-0.0352478
-0.0350952
-0.0344849
-0.0340271
-0.0335693
-0.0331116
-0.0317383
-0.0309753
-0.0291443
-0.027771
-0.0256348
-0.0227356
-0.0201416
-0.0170898
-0.0135803
-0.0102234
-0.00671387
-0.00335693
0.0
0.00289917
0.00564575
0.00762939
0.00961304
0.0109863
0.0120544
0.01297
0.0140381
0.0146484
0.0161743
0.0177002
0.0193787
0.0218201
0.0241089
0.0270081
0.0299072
0.0331116
0.0363159
0.0395203
0.0422668
0.0453186
0.04776
0.0498962
0.0517273
0.0537109
0.0558472
0.0570679
0.0582886
0.0596619
0.0604248
0.0610352
0.0621033
0.0624084
0.0630188
0.063324
0.0634766
0.0631714
0.0630188
0.0624084
0.0616455
0.06073
0.0595093
0.0578308
0.0556946
0.0532532
0.0505066
0.04776
0.0447083
0.0416565
0.0386047
0.035553
0.0326538
0.0294495
0.0263977
0.0234985
0.020752
0.017395
0.0137329
0.00976562
0.00564575
0.0012207
-0.0038147
-0.00930786
-0.0151062
-0.0210571
-0.0274658
-0.0334167
-0.0393677
-0.0454712
-0.0508118
-0.0563049
-0.0616455
-0.0662231
-0.0701904
-0.0737
-0.0770569
-0.0799561
-0.0822449
-0.0842285
-0.0860596
-0.0880432
-0.0897217
-0.0918579
-0.0933838
-0.0946045
-0.0964355
-0.0975037
-0.0987244
-0.0996399
-0.100403
-0.100708
-0.100555
-0.0999451
-0.0994873
-0.0985718
-0.0970459
-0.0959778
-0.0949097
-0.0939941
-0.0926208
-0.0921631
-0.0915527
-0.0915527
-0.091095
-0.0918579
-0.0924683
-0.0930786
-0.0938416
-0.0944519
-0.0947571
-0.0953674
-0.0956726
-0.0956726
-0.0953674
-0.0946045
-0.093689
-0.0926208
-0.0914001
-0.090332
-0.0892639
-0.0883484
-0.0872803
-0.0865173
-0.085907
-0.0852966
-0.0846863
-0.0836182
-0.0823975
-0.0808716
-0.0794983
-0.0778198
-0.0756836
-0.0741577
-0.0721741
-0.070343
-0.0675964
-0.0648499
-0.0611877
-0.0566101
-0.0512695
-0.0444031
-0.0367737
-0.0273132
-0.0163269
-0.00305176
0.0126648
0.0317383
0.0540161
0.0814819
0.113831
0.152283
0.195312
0.243835
0.296631
0.352478
0.410156
0.469208
0.529327
0.589752
0.649567
0.707703
0.762939
0.813293
0.857544
0.893555
0.921478
0.938263
0.944366
0.938721
0.921631
0.892487
0.852051
0.801086
0.740356
0.670166
0.592804
0.508728
0.420074
0.327454
0.233765
0.140228
0.0485229
-0.0384521
-0.120392
-0.19577
-0.262451
-0.319672
-0.366974
-0.4039
-0.431061
-0.447845
-0.454407
-0.451813
-0.440369
-0.422058
-0.397491
-0.368652
-0.335693
-0.300446
-0.264587
-0.228729
-0.194092
-0.161591
-0.132294
-0.106354
-0.0839233
-0.065155
-0.0506592
-0.039978
-0.0326538
-0.0286865
-0.0270081
-0.0282288
-0.0302124
-0.0340271
-0.0387573
-0.0445557
-0.0500488
-0.0556946
-0.0611877
-0.0665283
-0.0712585
-0.0752258
-0.0790405
-0.0817871
-0.0840759
-0.085907
-0.0865173
-0.0866699
-0.0860596
-0.0857544
-0.0840759
-0.0819397
-0.0798035
-0.0775146
-0.0749207
-0.0724792
-0.0697327
-0.0675964
-0.0653076
-0.0639343
-0.0624084
-0.0617981
-0.0613403
-0.0610352
-0.0614929
-0.0613403
-0.0617981
-0.0616455
-0.0619507
-0.0614929
-0.0610352
-0.0604248
-0.0588989
-0.0572205
-0.0553894
-0.0532532
-0.0515747
-0.0491333
-0.0466919
-0.0444031
-0.0421143
-0.0398254
-0.0382996
-0.0364685
-0.0354004
-0.0338745
-0.0325012
-0.0311279
-0.0299072
-0.0285339
-0.0268555
-0.0253296
-0.0238037
-0.0222778
-0.0198364
-0.0183105
-0.0164795
-0.0152588
-0.0138855
-0.0128174
-0.0119019
-0.0117493
-0.0109863
-0.0114441
-0.0109863
-0.0114441
-0.0112915
-0.0119019
-0.0120544
-0.0115967
-0.0115967
-0.0106812
-0.00976562
-0.00869751
-0.00732422
-0.00595093
-0.00442505
-0.00335693
-0.00152588
-0.000305176
0.000915527
0.00198364
0.00289917
0.00350952
0.00427246
0.00488281
0.00564575
0.0062561
0.00671387
0.00793457
0.0088501
0.0105286
0.0119019
0.0141907
0.0161743
0.017395
0.0190735
0.0210571
0.0224304
0.0239563
0.025177
0.0260925
0.0267029
0.0271606
0.0279236
0.0285339
0.0292969
0.0302124
0.0308228
0.0320435
0.0332642
0.0352478
0.0372314
0.0392151
0.0411987
0.0436401
0.0466919
0.0489807
0.0515747
0.0535583
0.0558472
0.0575256
0.0592041
0.059967
0.0611877
0.0617981
0.0631714
0.0637817
0.0642395
0.0654602
0.0665283
0.0679016
0.0695801
0.071106
0.0727844
0.0746155
0.0761414
0.0778198
0.0791931
0.0804138
0.0811768
0.0816345
0.0816345
0.0819397
0.0814819
0.0811768
0.0808716
0.0804138
0.0798035
0.0794983
0.0793457
0.0796509
0.0799561
0.080719
0.0813293
0.0817871
0.0827026
0.0830078
0.083313
0.0831604
0.0828552
0.0827026
0.0811768
0.0801086
0.0787354
0.0775146
0.0759888
0.0743103
0.0733948
0.0721741
0.0708008
0.0698853
0.0691223
0.0686646
0.0680542
0.0671387
0.0666809
0.065918
0.0645447
0.0634766
0.0619507
0.0598145
0.0569153
0.0544739
0.0508118
0.0471497
0.0434875
0.0396729
0.0361633
0.0315857
0.0279236
0.0236511
0.0205994
0.0166321
0.0134277
0.00930786
0.00610352
0.00244141
-0.000762939
-0.00411987
-0.00778198
-0.0111389
-0.0149536
-0.0186157
-0.022583
-0.0259399
-0.0297546
-0.032959
-0.0360107
-0.0393677
-0.0416565
-0.0439453
-0.0460815
-0.0480652
-0.0494385
-0.0511169
-0.0531006
-0.0544739
-0.0561523
-0.0584412
-0.0601196
-0.0627136
-0.0650024
-0.0675964
-0.0701904
-0.072937
-0.0756836
-0.0775146
-0.0794983
-0.0813293
-0.0822449
-0.0831604
-0.0837708
-0.0837708
-0.0836182
-0.0831604
-0.0823975
-0.0820923
-0.0810242
-0.0805664
-0.0799561
-0.0798035
-0.0791931
-0.0793457
-0.0791931
-0.0798035
-0.0796509
-0.0793457
-0.0796509
-0.0791931
-0.0788879
-0.0785828
-0.0775146
-0.0762939
-0.075531
-0.0744629
-0.072937
-0.0717163
-0.0708008
-0.0701904
-0.0695801
-0.0691223
-0.0691223
-0.0695801
-0.0697327
-0.0706482
-0.0706482
-0.0708008
-0.0714111
-0.0714111
-0.0714111
-0.0709534
-0.0706482
-0.0700378
-0.0691223
-0.0680542
-0.0668335
-0.0654602
-0.0642395
-0.0636292
-0.0622559
-0.0614929
-0.0608826
-0.0605774
-0.059967
-0.0598145
-0.0590515
-0.0582886
-0.0579834
-0.0572205
-0.0563049
-0.0549316
-0.052948
-0.0514221
-0.0492859
-0.0473022
-0.0450134
-0.0427246
-0.0411987
-0.0393677
-0.0378418
-0.0367737
-0.0360107
-0.0352478
-0.0349426
-0.03479
-0.0346375
-0.0341797
-0.0340271
-0.0335693
-0.032959
-0.0315857
-0.0309753
-0.0292969
-0.027771
-0.0259399
-0.0248718
-0.0230408
-0.0219727
-0.0205994
-0.0190735
-0.0180054
-0.0169373
-0.0164795
-0.015564
-0.0152588
-0.014801
-0.0141907
-0.0134277
-0.01297
-0.0119019
-0.0109863
-0.00991821
-0.00839233
-0.00686646
-0.00534058
-0.00350952
-0.00259399
-0.000915527
0.0
0.0012207
0.00183105
0.00198364
0.00152588
0.00183105
0.00137329
0.0012207
0.000915527
0.000610352
0.000762939
0.000762939
0.00106812
0.0012207
0.00167847
0.00228882
0.00259399
0.00274658
0.00335693
0.00335693
0.00335693
0.00305176
0.00198364
0.00106812
0.0
-0.00152588
-0.00289917
-0.00473022
-0.00610352
-0.00717163
-0.0088501
-0.00961304
-0.010376
-0.0108337
-0.0109863
-0.0114441
-0.0112915
-0.0108337
-0.0106812
-0.0109863
-0.010376
-0.0108337
-0.0112915
-0.0117493
-0.0120544
-0.0126648
-0.0128174
-0.0132751
-0.0131226
-0.0134277
-0.0126648
-0.012207
-0.0108337
-0.00946045
-0.00762939
-0.00549316
-0.00335693
-0.00137329
0.000915527
0.00259399
0.00488281
0.00610352
0.00747681
0.00823975
0.00930786
0.00946045
0.00946045
0.00961304
0.00930786
0.00930786
0.00930786
0.00946045
0.0102234
0.0109863
0.01297
0.0146484
0.0170898
0.0193787
0.0216675
0.0244141
0.0267029
0.0294495
0.0315857
0.0337219
0.035553
0.0378418
0.0396729
0.0416565
0.0440979
0.0465393
0.0488281
0.0511169
0.0535583
0.0561523
0.0584412
0.0605774
0.0627136
0.0646973
0.0662231
0.0669861
0.0682068
0.0683594
0.0679016
0.0671387
0.0662231
0.0650024
0.0636292
0.0622559
0.0598145
0.0576782
0.0559998
0.0534058
0.0514221
0.0494385
0.0474548
0.045166
0.042572
0.0401306
0.0372314
0.0343323
0.0305176
0.0259399
0.0215149
0.0160217
0.00991821
0.00366211
-0.00228882
-0.00869751
-0.0151062
-0.0216675
-0.0276184
-0.0332642
-0.0384521
-0.0434875
-0.0480652
-0.0523376
-0.0558472
-0.0593567
-0.0630188
-0.065918
-0.0683594
-0.071106
-0.0735474
-0.0759888
-0.0775146
-0.0791931
-0.0805664
-0.0822449
-0.08255
-0.0831604
-0.0839233
-0.083313
-0.0830078
-0.0819397
-0.0810242
-0.0798035
-0.0785828
-0.0769043
-0.0756836
-0.0747681
-0.0737
-0.072937
-0.0726318
-0.0724792
-0.072937
-0.0733948
-0.0743103
-0.0744629
-0.0747681
-0.0750732
-0.0756836
-0.075531
-0.075531
-0.0749207
-0.0746155
-0.0730896
-0.0724792
-0.0714111
-0.0706482
-0.0692749
-0.0689697
-0.0683594
-0.0683594
-0.0682068
-0.0683594
-0.0689697
-0.0692749
-0.0692749
-0.0692749
-0.0692749
-0.0691223
-0.0682068
-0.0669861
-0.0653076
-0.0636292
-0.0617981
-0.0602722
-0.0585938
-0.0570679
-0.0547791
-0.0527954
-0.0498962
-0.0460815
-0.0411987
-0.0354004
-0.0282288
-0.0193787
-0.00823975
0.00488281
0.0209045
0.0404358
0.0637817
0.0920105
0.125427
0.164795
0.208893
0.257416
0.310516
0.365143
0.421753
0.479736
0.538025
0.596619
0.653992
0.709686
0.762024
0.809784
0.851593
0.88562
0.910492
0.925598
0.930328
0.922852
0.904541
0.874176
0.833435
0.78186
0.720215
0.650024
0.571899
0.487518
0.39856
0.306549
0.212708
0.119934
0.0294495
-0.0567627
-0.137177
-0.210266
-0.274658
-0.328979
-0.373688
-0.407867
-0.431366
-0.444794
-0.448761
-0.443726
-0.431366
-0.41214
-0.38681
-0.357666
-0.325165
-0.291748
-0.257111
-0.223236
-0.19104
-0.160675
-0.133667
-0.109711
-0.0895691
-0.0732422
-0.0602722
-0.0508118
-0.0445557
-0.0411987
-0.040741
-0.0424194
-0.0457764
-0.0506592
-0.0563049
-0.0628662
-0.0695801
-0.0761414
-0.0827026
-0.0886536
-0.0938416
-0.0987244
-0.101776
-0.10376
-0.105438
-0.105591
-0.105286
-0.103912
-0.101776
-0.0991821
-0.0958252
-0.0926208
-0.0888062
-0.0852966
-0.0816345
-0.0782776
-0.0756836
-0.0730896
-0.0715637
-0.0694275
-0.0679016
-0.0671387
-0.0665283
-0.0657654
-0.0653076
-0.0645447
-0.0642395
-0.0630188
-0.0621033
-0.0611877
-0.0598145
-0.0585938
-0.0572205
-0.0564575
-0.055542
-0.0544739
-0.0541687
-0.0531006
-0.0526428
-0.0526428
-0.0526428
-0.0521851
-0.0512695
-0.050354
-0.0494385
-0.0486755
-0.0471497
-0.0448608
-0.0427246
-0.0404358
-0.0382996
-0.0357056
-0.0328064
-0.0302124
-0.0279236
-0.0256348
-0.0236511
-0.0221252
-0.0209045
-0.0196838
-0.0192261
-0.0189209
-0.0184631
-0.0183105
-0.0177002
-0.017395
-0.0169373
-0.0161743
-0.0152588
-0.0143433
-0.0128174
-0.0112915
-0.00991821
-0.00854492
-0.00701904
-0.00518799
-0.0038147
-0.00289917
-0.00183105
-0.000762939
0.0
0.000915527
0.00167847
0.00320435
0.00411987
0.00564575
0.00778198
0.00961304
0.012207
0.0152588
0.0180054
0.020752
0.0236511
0.0268555
0.0291443
0.0323486
0.0343323
0.0369263
0.0390625
0.0402832
0.0415039
0.0427246
0.0434875
0.0448608
0.045929
0.0471497
0.0483704
0.0497437
0.0518799
0.0537109
0.0556946
0.0576782
0.059967
0.0622559
0.0640869
0.0660706
0.0679016
0.0695801
0.071106
0.0723267
0.0733948
0.0747681
0.0758362
0.0770569
0.0784302
0.0804138
0.0813293
0.0830078
0.0854492
0.0874329
0.0900269
0.0921631
0.0939941
0.096283
0.0979614
0.0993347
0.100708
0.101318
0.101776
0.101318
0.101166
0.100403
0.100098
0.0991821
0.0982666
0.0978088
0.0975037
0.0968933
0.0970459
0.096283
0.0967407
0.0965881
0.0965881
0.0965881
0.096283
0.0958252
0.09552
0.0944519
0.093689
0.0920105
0.090332
0.088501
0.0869751
0.085144
0.0831604
0.0817871
0.0801086
0.0784302
0.0773621
0.0761414
0.0744629
0.0733948
0.0720215
0.070343
0.0691223
0.0665283
0.0643921
0.0616455
0.0585938
0.0553894
0.0518799
0.0482178
0.0445557
0.040741
0.0378418
0.0343323
0.0312805
0.0283813
0.0254822
0.0233459
0.0212097
0.0198364
0.017395
0.0154114
0.0134277
0.0115967
0.0088501
0.0062561
0.00335693
0.000762939
-0.00259399
-0.00610352
-0.00946045
-0.01297
-0.0160217
-0.0195312
-0.0230408
-0.0260925
-0.0286865
-0.0315857
-0.0346375
-0.0370789
-0.0396729
-0.0424194
-0.0453186
-0.0476074
-0.0509644
-0.0540161
-0.057373
-0.0605774
-0.0640869
-0.0672913
-0.070343
-0.0733948
-0.0753784
-0.0778198
-0.0791931
-0.0804138
-0.0813293
-0.0817871
-0.0819397
-0.0819397
-0.0817871
-0.0810242
-0.0808716
-0.080719
-0.0801086
-0.0798035
-0.0801086
-0.0804138
-0.0805664
-0.0811768
-0.0814819
-0.0817871
-0.08255
-0.08255
-0.0827026
-0.0820923
-0.0817871
-0.0804138
-0.0794983
-0.0785828
-0.0770569
-0.0759888
-0.0746155
-0.0733948
-0.0727844
-0.0714111
-0.0712585
-0.0708008
-0.0706482
-0.0704956
-0.0700378
-0.0700378
-0.070343
-0.0695801
-0.0695801
-0.0688171
-0.0680542
-0.0672913
-0.0663757
-0.065155
-0.0643921
-0.0630188
-0.062561
-0.0613403
-0.0605774
-0.0602722
-0.059967
-0.0602722
-0.0605774
-0.0604248
-0.0604248
-0.0608826
-0.0602722
-0.0598145
-0.0596619
-0.0585938
-0.0570679
-0.0559998
-0.0546265
-0.0521851
-0.0505066
-0.0486755
-0.0468445
-0.0456238
-0.0436401
-0.042572
-0.0411987
-0.0410461
-0.0404358
-0.0392151
-0.0389099
-0.038147
-0.0366211
-0.0360107
-0.0346375
-0.0335693
-0.0317383
-0.0297546
-0.0276184
-0.0263977
-0.0248718
-0.0227356
-0.0212097
-0.0202942
-0.0189209
-0.0183105
-0.0180054
-0.017395
-0.0180054
-0.018158
-0.0184631
-0.0190735
-0.0192261
-0.0193787
-0.0195312
-0.0190735
-0.0183105
-0.0178528
-0.0169373
-0.0158691
-0.0144958
-0.0140381
-0.0128174
-0.0120544
-0.0115967
-0.0111389
-0.0114441
-0.0117493
-0.0123596
-0.01297
-0.0138855
-0.0146484
-0.0152588
-0.0163269
-0.0166321
-0.0170898
-0.0170898
-0.0170898
-0.0169373
-0.0167847
-0.0163269
-0.0160217
-0.0161743
-0.0163269
-0.0164795
-0.0172424
-0.0178528
-0.0193787
-0.0205994
-0.0218201
-0.0231934
-0.025177
-0.0262451
-0.0270081
-0.0282288
-0.0288391
-0.0291443
-0.0297546
-0.0300598
-0.030365
-0.030365
-0.0305176
-0.0308228
-0.0309753
-0.0312805
-0.0320435
-0.0323486
-0.0334167
-0.0340271
-0.0344849
-0.0350952
-0.0354004
-0.0350952
-0.0346375
-0.0335693
-0.0323486
-0.030365
-0.0279236
-0.025177
-0.0221252
-0.0190735
-0.0158691
-0.0128174
-0.00961304
-0.0062561
-0.00396729
-0.00183105
0.000610352
0.00213623
0.00366211
0.00564575
0.00640869
0.00778198
0.00869751
0.00930786
0.0105286
0.0119019
0.0140381
0.0152588
0.0170898
0.0195312
0.0219727
0.0239563
0.0263977
0.0285339
0.030365
0.032196
0.0338745
0.0358582
0.037384
0.0393677
0.0416565
0.0436401
0.0462341
0.0489807
0.0515747
0.0541687
0.0567627
0.0592041
0.0616455
0.0636292
0.0654602
0.0665283
0.0674438
0.0680542
0.067749
0.0669861
0.0665283
0.0646973
0.063324
0.06073
0.0590515
0.0566101
0.0540161
0.0517273
0.0491333
0.0465393
0.0444031
0.0418091
0.0395203
0.0366211
0.0332642
0.0296021
0.0259399
0.0212097
0.0158691
0.0102234
0.0038147
-0.00289917
-0.00961304
-0.0169373
-0.0236511
-0.0308228
-0.0376892
-0.0442505
-0.0506592
-0.0564575
-0.0617981
-0.0665283
-0.0714111
-0.0752258
-0.0790405
-0.0827026
-0.0860596
-0.0891113
-0.0918579
-0.0949097
-0.0973511
-0.100098
-0.102386
-0.104065
-0.106354
-0.107574
-0.108795
-0.109406
-0.109863
-0.110016
-0.109406
-0.109406
-0.108795
-0.10788
-0.107574
-0.106964
-0.106506
-0.106049
-0.105896
-0.105896
-0.106659
-0.106812
-0.107269
-0.107422
-0.107727
-0.10788
-0.10788
-0.107269
-0.106812
-0.105896
-0.10498
-0.103912
-0.102081
-0.101166
-0.0999451
-0.0987244
-0.0979614
-0.0968933
-0.0964355
-0.0959778
-0.0959778
-0.0959778
-0.0959778
-0.0956726
-0.0956726
-0.0959778
-0.0952148
-0.0947571
-0.093689
-0.0920105
-0.0901794
-0.0881958
-0.0860596
-0.0843811
-0.0822449
-0.0805664
-0.0785828
-0.0765991
-0.0741577
-0.0712585
-0.0671387
-0.0622559
-0.0559998
-0.0479126
-0.038147
-0.0259399
-0.0112915
0.0062561
0.0285339
0.0547791
0.085907
0.123138
0.165405
0.212097
0.263367
0.316772
0.373077
0.429993
0.487518
0.545197
0.602112
0.658417
0.711365
0.760651
0.804291
0.841064
0.869293
0.887756
0.895691
0.892487
0.878448
0.852356
0.815125
0.767059
0.708771
0.641632
0.565796
0.483856
0.396423
0.305023
0.211639
0.118866
0.0279236
-0.0596619
-0.141754
-0.21637
-0.282745
-0.340576
-0.388031
-0.424957
-0.451813
-0.468445
-0.475159
-0.47348
-0.463409
-0.445862
-0.422668
-0.394897
-0.363464
-0.32959
-0.295563
-0.260773
-0.227356
-0.19516
-0.166473
-0.139923
-0.117493
-0.0982666
-0.0823975
-0.070343
-0.0619507
-0.0564575
-0.0531006
-0.0532532
-0.0552368
-0.0582886
-0.063324
-0.0688171
-0.0749207
-0.0816345
-0.087738
-0.0939941
-0.0990295
-0.10376
-0.106812
-0.109406
-0.111084
-0.111237
-0.110931
-0.1091
-0.106812
-0.10376
-0.100098
-0.0968933
-0.0926208
-0.0888062
-0.085144
-0.0816345
-0.0782776
-0.0753784
-0.0730896
-0.0709534
-0.0686646
-0.0672913
-0.0656128
-0.0642395
-0.0628662
-0.0611877
-0.0595093
-0.057373
-0.0556946
-0.0535583
-0.0517273
-0.0497437
-0.0476074
-0.0460815
-0.0444031
-0.0427246
-0.0415039
-0.040741
-0.0398254
-0.0393677
-0.0389099
-0.0382996
-0.0378418
-0.0372314
-0.0364685
-0.0357056
-0.0346375
-0.0334167
-0.0314331
-0.0302124
-0.0285339
-0.0265503
-0.0253296
-0.0236511
-0.0222778
-0.0210571
-0.0201416
-0.0201416
-0.0195312
-0.0195312
-0.0195312
-0.0195312
-0.0190735
-0.0192261
-0.0184631
-0.018158
-0.0169373
-0.0158691
-0.0143433
-0.0126648
-0.0109863
-0.00900269
-0.00732422
-0.00564575
-0.0038147
-0.00228882
-0.0012207
0.000152588
0.0012207
0.00152588
0.00244141
0.00366211
0.00442505
0.00534058
0.00640869
0.00747681
0.00854492
0.010376
0.012207
0.0143433
0.0160217
0.0180054
0.0201416
0.0219727
0.0236511
0.0254822
0.0262451
0.0273132
0.027771
0.0280762
0.0285339
0.0289917
0.0294495
0.0297546
0.0309753
0.0317383
0.0334167
0.0349426
0.0367737
0.0390625
0.040741
0.0430298
0.045166
0.0473022
0.0492859
0.0509644
0.0523376
0.0538635
0.0544739
0.0549316
0.0556946
0.0563049
0.0566101
0.0570679
0.0579834
0.0590515
0.0601196
0.0611877
0.0631714
0.0648499
0.0665283
0.0683594
0.0701904
0.0717163
0.0733948
0.0749207
0.0761414
0.0772095
0.0779724
0.0787354
0.0791931
0.0799561
0.0805664
0.0811768
0.0816345
0.08255
0.083313
0.0840759
0.0856018
0.0868225
0.0878906
0.0891113
0.0901794
0.0909424
0.0914001
0.0921631
0.0924683
0.0915527
0.0909424
0.0895691
0.0883484
0.0872803
0.085907
0.0840759
0.08255
0.0810242
0.0798035
0.0784302
0.0770569
0.0758362
0.0746155
0.0732422
0.0717163
0.0697327
0.0682068
0.0656128
0.063324
0.0602722
0.0575256
0.0540161
0.0509644
0.0476074
0.0437927
0.0408936
0.0379944
0.03479
0.032196
0.0296021
0.0276184
0.0256348
0.0231934
0.0209045
0.0189209
0.0167847
0.0138855
0.0109863
0.00732422
0.00396729
-0.000457764
-0.00427246
-0.00854492
-0.0131226
-0.0172424
-0.0218201
-0.0259399
-0.0302124
-0.0337219
-0.0375366
-0.0405884
-0.0431824
-0.0457764
-0.0483704
-0.0498962
-0.0523376
-0.0544739
-0.0563049
-0.0588989
-0.0605774
-0.0631714
-0.0657654
-0.0680542
-0.0701904
-0.0723267
-0.0743103
-0.0762939
-0.0778198
-0.0793457
-0.0804138
-0.0811768
-0.0817871
-0.0820923
-0.0823975
-0.0827026
-0.0828552
-0.083313
-0.0836182
-0.0839233
-0.0843811
-0.0848389
-0.0854492
-0.0857544
-0.0857544
-0.085907
-0.0856018
-0.0854492
-0.085144
-0.0843811
-0.0830078
-0.0814819
-0.0801086
-0.0787354
-0.0770569
-0.0761414
-0.0749207
-0.0737
-0.0730896
-0.072937
-0.0735474
-0.0741577
-0.0747681
-0.0758362
-0.0770569
-0.078125
-0.0791931
-0.0799561
-0.0802612
-0.0810242
-0.0808716
-0.0805664
-0.0799561
-0.0791931
-0.0785828
-0.0772095
-0.0761414
-0.0749207
-0.0735474
-0.0726318
-0.0712585
-0.0704956
-0.0697327
-0.0691223
-0.0680542
-0.0675964
-0.0665283
-0.065918
-0.0650024
-0.063324
-0.0624084
-0.0604248
-0.0592041
-0.0579834
-0.0564575
-0.0550842
-0.0540161
-0.0532532
-0.0527954
-0.0521851
-0.0523376
-0.0524902
-0.052948
-0.0537109
-0.0538635
-0.0547791
-0.0546265
-0.0544739
-0.0544739
-0.0537109
-0.0524902
-0.0512695
-0.0494385
-0.0479126
-0.0457764
-0.0437927
-0.0415039
-0.0392151
-0.037384
-0.035553
-0.0340271
-0.0331116
-0.0320435
-0.0314331
-0.0305176
-0.0299072
-0.0292969
-0.0286865
-0.0283813
-0.0279236
-0.0271606
-0.0262451
-0.0254822
-0.0248718
-0.0244141
-0.0236511
-0.0236511
-0.0236511
-0.0241089
-0.0247192
-0.0254822
-0.0265503
-0.0282288
-0.0292969
-0.0308228
-0.032196
-0.032959
-0.0337219
-0.0340271
-0.0341797
-0.0338745
-0.032959
-0.0323486
-0.0311279
-0.030365
-0.0288391
-0.0276184
-0.0268555
-0.0260925
-0.0254822
-0.0254822
-0.0254822
-0.0259399
-0.0262451
-0.0268555
-0.0274658
-0.0280762
-0.0283813
-0.0289917
-0.0288391
-0.0289917
-0.0289917
-0.0286865
-0.0288391
-0.0286865
-0.0288391
-0.0285339
-0.0288391
-0.0291443
-0.0296021
-0.0300598
-0.030365
-0.0309753
-0.0311279
-0.0311279
-0.0308228
-0.0302124
-0.0292969
-0.027771
-0.0263977
-0.0238037
-0.0215149
-0.0183105
-0.0154114
-0.012207
-0.00854492
-0.00534058
-0.00198364
0.000457764
0.00289917
0.00488281
0.00640869
0.00732422
0.00793457
0.00808716
0.0088501
0.00900269
0.00915527
0.00961304
0.0102234
0.0117493
0.0132751
0.015564
0.0167847
0.0195312
0.0216675
0.0239563
0.0268555
0.0288391
0.0311279
0.0338745
0.035553
0.038147
0.0398254
0.0421143
0.0445557
0.0465393
0.0489807
0.0512695
0.0538635
0.0567627
0.0585938
0.0610352
0.0631714
0.0650024
0.0669861
0.0679016
0.0689697
0.0695801
0.0692749
0.0686646
0.0679016
0.0666809
0.065155
0.0634766
0.0616455
0.0596619
0.0572205
0.0546265
0.0520325
0.0497437
0.0466919
0.0437927
0.040741
0.0378418
0.0343323
0.0300598
0.0256348
0.0209045
0.0149536
0.00869751
0.00244141
-0.00457764
-0.0112915
-0.0183105
-0.0250244
-0.0317383
-0.0386047
-0.0444031
-0.0502014
-0.0550842
-0.0598145
-0.0640869
-0.067749
-0.0712585
-0.0738525
-0.0767517
-0.0785828
-0.0810242
-0.0823975
-0.0840759
-0.0849915
-0.0865173
-0.0874329
-0.088501
-0.0888062
-0.0892639
-0.0892639
-0.0891113
-0.0888062
-0.0880432
-0.0866699
-0.0856018
-0.0846863
-0.0839233
-0.0828552
-0.0823975
-0.0819397
-0.0817871
-0.0817871
-0.0823975
-0.0830078
-0.0845337
-0.085907
-0.0868225
-0.0878906
-0.0892639
-0.090332
-0.091095
-0.0917053
-0.0921631
-0.0921631
-0.0921631
-0.0921631
-0.0914001
-0.091095
-0.0906372
-0.0901794
-0.0900269
-0.0901794
-0.0906372
-0.0906372
-0.0914001
-0.0918579
-0.0921631
-0.0923157
-0.0920105
-0.0917053
-0.0904846
-0.0889587
-0.0868225
-0.0854492
-0.0839233
-0.0823975
-0.0805664
-0.0787354
-0.0761414
-0.0726318
-0.068512
-0.0634766
-0.0569153
-0.0497437
-0.040741
-0.0294495
-0.0169373
-0.000915527
0.018158
0.0405884
0.0688171
0.101776
0.140991
0.185394
0.234222
0.28595
0.340424
0.396881
0.454407
0.512543
0.570984
0.627899
0.683746
0.736084
0.783539
0.825806
0.85968
0.885925
0.9021
0.90744
0.901947
0.885315
0.858002
0.819702
0.771027
0.713348
0.646515
0.572052
0.491333
0.405884
0.317078
0.226593
0.135803
0.0473022
-0.0376892
-0.11795
-0.19165
-0.257111
-0.314026
-0.361786
-0.39917
-0.426788
-0.444794
-0.452881
-0.452118
-0.443268
-0.427856
-0.406342
-0.380096
-0.350494
-0.318604
-0.285797
-0.252838
-0.221558
-0.191498
-0.163269
-0.13855
-0.11673
-0.0987244
-0.0843811
-0.0730896
-0.0650024
-0.0601196
-0.057373
-0.0579834
-0.0598145
-0.0636292
-0.0682068
-0.0744629
-0.0804138
-0.0868225
-0.0930786
-0.0997925
-0.105591
-0.110779
-0.115356
-0.118866
-0.122223
-0.123901
-0.124969
-0.12558
-0.124969
-0.123596
-0.12146
-0.119171
-0.116882
-0.113678
-0.110931
-0.107727
-0.104828
-0.102234
-0.0997925
-0.0978088
-0.0958252
-0.0946045
-0.0935364
-0.0921631
-0.0909424
-0.0895691
-0.0880432
-0.0869751
-0.0852966
-0.0830078
-0.0813293
-0.0790405
-0.0767517
-0.0746155
-0.0726318
-0.0708008
-0.0692749
-0.067749
-0.0669861
-0.0660706
-0.0657654
-0.0653076
-0.0654602
-0.0650024
-0.0643921
-0.0640869
-0.0639343
-0.0631714
-0.0619507
-0.0610352
-0.0585938
-0.0570679
-0.0547791
-0.0523376
-0.0500488
-0.0476074
-0.045166
-0.0427246
-0.0411987
-0.0393677
-0.0382996
-0.0367737
-0.0360107
-0.0354004
-0.0340271
-0.0334167
-0.0325012
-0.032196
-0.0315857
-0.0306702
-0.0291443
-0.0280762
-0.0268555
-0.0257874
-0.0241089
-0.0227356
-0.0215149
-0.019989
-0.0184631
-0.0177002
-0.0169373
-0.0154114
-0.0146484
-0.0135803
-0.0120544
-0.0106812
-0.00869751
-0.00686646
-0.00518799
-0.00244141
-0.000305176
0.00228882
0.0050354
0.00762939
0.0100708
0.0126648
0.0151062
0.0178528
0.0193787
0.0210571
0.0228882
0.0241089
0.0256348
0.0268555
0.0283813
0.0302124
0.0315857
0.0335693
0.0358582
0.0384521
0.0405884
0.0439453
0.0463867
0.0492859
0.0515747
0.0541687
0.0564575
0.0579834
0.0593567
0.0602722
0.0608826
0.0610352
0.0613403
0.0613403
0.0614929
0.0616455
0.0616455
0.0616455
0.062561
0.0637817
0.0646973
0.0660706
0.0672913
0.0688171
0.0698853
0.0706482
0.0715637
0.0721741
0.0723267
0.0721741
0.0717163
0.0709534
0.0700378
0.0689697
0.067749
0.0663757
0.0653076
0.0639343
0.0627136
0.0616455
0.06073
0.059967
0.0593567
0.0592041
0.0585938
0.0578308
0.0572205
0.0564575
0.0561523
0.0547791
0.0535583
0.0524902
0.0511169
0.0500488
0.0488281
0.0474548
0.0465393
0.0457764
0.0456238
0.0453186
0.0454712
0.045166
0.045166
0.0444031
0.0439453
0.0431824
0.0418091
0.0404358
0.0389099
0.0366211
0.0337219
0.0305176
0.0274658
0.0239563
0.0204468
0.0175476
0.0140381
0.0105286
0.00762939
0.00457764
0.00198364
-0.000610352
-0.00335693
-0.00595093
-0.00900269
-0.0115967
-0.0144958
-0.0177002
-0.0209045
-0.0247192
-0.0286865
-0.0334167
-0.037384
-0.0416565
-0.0460815
-0.0506592
-0.0550842
-0.0588989
-0.0624084
-0.0656128
-0.068512
-0.0712585
-0.0732422
-0.0749207
-0.0765991
-0.0779724
-0.0794983
-0.0808716
-0.08255
-0.0840759
-0.0862122
-0.0878906
-0.0895691
-0.0912476
-0.0926208
-0.0939941
-0.0949097
-0.0961304
-0.0964355
-0.0970459
-0.0968933
-0.0968933
-0.0964355
-0.0961304
-0.09552
-0.0947571
-0.0939941
-0.0933838
-0.0933838
-0.092926
-0.0926208
-0.0923157
-0.092926
-0.0923157
-0.0920105
-0.0914001
-0.0909424
-0.090332
-0.0888062
-0.0880432
-0.0860596
-0.0849915
-0.0834656
-0.0816345
-0.0798035
-0.0782776
-0.0772095
-0.0761414
-0.0752258
-0.0752258
-0.0746155
-0.0747681
-0.0750732
-0.075531
-0.0753784
-0.0752258
-0.0749207
-0.0750732
-0.0743103
-0.0732422
-0.0720215
-0.0701904
-0.0683594
-0.0671387
-0.0654602
-0.063324
-0.0619507
-0.0602722
-0.0588989
-0.0575256
-0.0570679
-0.0561523
-0.055542
-0.0550842
-0.0546265
-0.0544739
-0.0537109
-0.0527954
-0.0520325
-0.0506592
-0.0494385
-0.0479126
-0.0463867
-0.0447083
-0.043335
-0.0419617
-0.040741
-0.0398254
-0.0390625
-0.0386047
-0.0382996
-0.0384521
-0.0379944
-0.0382996
-0.0379944
-0.0376892
-0.037384
-0.0369263
-0.0358582
-0.03479
-0.0335693
-0.032196
-0.0309753
-0.0288391
-0.027771
-0.0262451
-0.0247192
-0.0231934
-0.0222778
-0.0216675
-0.0212097
-0.0209045
-0.0210571
-0.0204468
-0.0209045
-0.0204468
-0.0201416
-0.0195312
-0.0186157
-0.0180054
-0.0163269
-0.0151062
-0.0134277
-0.0119019
-0.00976562
-0.00854492
-0.00717163
-0.0062561
-0.00564575
-0.00549316
-0.00534058
-0.00518799
-0.00579834
-0.00671387
-0.00732422
-0.00762939
-0.00808716
-0.00869751
-0.00869751
-0.00915527
-0.00930786
-0.00915527
-0.00946045
-0.00915527
-0.00900269
-0.00915527
-0.00915527
-0.00915527
-0.00961304
-0.0100708
-0.0111389
-0.0119019
-0.0131226
-0.0137329
-0.0146484
-0.0152588
-0.0161743
-0.0161743
-0.0163269
-0.0157166
-0.0141907
-0.01297
-0.0114441
-0.00900269
-0.00671387
-0.00427246
-0.00152588
0.000762939
0.00350952
0.00579834
0.00869751
0.010376
0.0134277
0.015564
0.0178528
0.0204468
0.0227356
0.0254822
0.0286865
0.0306702
0.0332642
0.035553
0.0378418
0.0401306
0.0422668
0.0445557
0.0468445
0.0494385
0.0515747
0.0537109
0.0558472
0.0578308
0.059967
0.0622559
0.0637817
0.0662231
0.0689697
0.0718689
0.0756836
0.0788879
0.0823975
0.0862122
0.0895691
0.0927734
0.0961304
0.0987244
0.100555
0.102692
0.103607
0.104065
0.10376
0.103149
0.101624
0.10025
0.0987244
0.0965881
0.0949097
0.0927734
0.0912476
0.0892639
0.0883484
0.0871277
0.0856018
0.0834656
0.0814819
0.0791931
0.0767517
0.0737
0.0701904
0.0660706
0.0614929
0.0563049
0.0511169
0.0457764
0.0395203
0.0335693
0.0276184
0.0213623
0.015564
0.00961304
0.00411987
-0.000610352
-0.00579834
-0.0106812
-0.0152588
-0.0195312
-0.0239563
-0.0283813
-0.0323486
-0.0366211
-0.0410461
-0.0453186
-0.0491333
-0.0527954
-0.0567627
-0.0596619
-0.0627136
-0.0650024
-0.0669861
-0.0680542
-0.0694275
-0.0697327
-0.0701904
-0.070343
-0.070343
-0.0708008
-0.0712585
-0.0712585
-0.0717163
-0.0720215
-0.0726318
-0.0738525
-0.0744629
-0.0752258
-0.0759888
-0.0767517
-0.0770569
-0.0776672
-0.0779724
-0.0778198
-0.0778198
-0.0775146
-0.0769043
-0.0767517
-0.0761414
-0.0758362
-0.0759888
-0.0756836
-0.0756836
-0.0765991
-0.0773621
-0.0782776
-0.0787354
-0.0796509
-0.0799561
-0.080719
-0.0805664
-0.0808716
-0.0802612
-0.0793457
-0.0784302
-0.0772095
-0.0752258
-0.0733948
-0.0717163
-0.0694275
-0.0683594
-0.0674438
-0.0669861
-0.0666809
-0.0665283
-0.0662231
-0.0654602
-0.0639343
-0.0614929
-0.0569153
-0.0514221
-0.0439453
-0.0340271
-0.0221252
-0.00656128
0.0125122
0.0354004
0.0628662
0.0956726
0.134735
0.179291
0.229645
0.283813
0.341949
0.402679
0.465088
0.528259
0.592499
0.656738
0.720215
0.78125
0.838623
0.890656
0.936127
0.973053
1.00021
1.01608
1.0199
1.0112
0.989685
0.955963
0.909882
0.852051
0.783844
0.705414
0.619507
0.526581
0.429535
0.328979
0.227814
0.128326
0.0315857
-0.0601196
-0.144958
-0.221863
-0.289764
-0.34729
-0.39444
-0.431061
-0.456848
-0.472412
-0.47821
-0.475006
-0.463715
-0.446014
-0.422211
-0.393524
-0.361938
-0.327759
-0.292969
-0.257416
-0.223541
-0.191193
-0.161438
-0.13443
-0.111084
-0.0914001
-0.0758362
-0.0639343
-0.0556946
-0.0506592
-0.0491333
-0.0498962
-0.052948
-0.0576782
-0.0637817
-0.0706482
-0.078125
-0.0849915
-0.0914001
-0.0971985
-0.102081
-0.105896
-0.108795
-0.110779
-0.111084
-0.111237
-0.110626
-0.108643
-0.106964
-0.104828
-0.102844
-0.100098
-0.0979614
-0.0961304
-0.0949097
-0.0930786
-0.0921631
-0.0906372
-0.0894165
-0.0881958
-0.0866699
-0.085144
-0.0837708
-0.0819397
-0.0801086
-0.0785828
-0.0765991
-0.0749207
-0.0727844
-0.071106
-0.0697327
-0.0682068
-0.0665283
-0.065918
-0.0648499
-0.0640869
-0.0628662
-0.0619507
-0.0604248
-0.0590515
-0.057373
-0.0550842
-0.0534058
-0.0506592
-0.0485229
-0.0456238
-0.0434875
-0.040741
-0.0379944
-0.035553
-0.0337219
-0.0317383
-0.0305176
-0.0291443
-0.0286865
-0.0280762
-0.0271606
-0.0273132
-0.0265503
-0.0256348
-0.0253296
-0.0244141
-0.0234985
-0.0218201
-0.0205994
-0.0187683
-0.0170898
-0.0158691
-0.0140381
-0.012207
-0.0106812
-0.00930786
-0.00823975
-0.00686646
-0.00610352
-0.00549316
-0.00396729
-0.00289917
-0.00167847
-0.000762939
0.000762939
0.00244141
0.00396729
0.00579834
0.00823975
0.0106812
0.01297
0.0152588
0.017395
0.0190735
0.020752
0.0221252
0.0233459
0.0242615
0.0248718
0.0259399
0.0270081
0.0280762
0.0286865
0.0296021
0.0312805
0.0328064
0.0346375
0.0369263
0.0393677
0.0418091
0.0445557
0.0474548
0.0502014
0.0526428
0.0553894
0.0578308
0.0596619
0.0611877
0.0627136
0.0637817
0.0646973
0.0656128
0.0672913
0.0679016
0.0689697
0.0708008
0.0723267
0.0737
0.0753784
0.0775146
0.0793457
0.0810242
0.0828552
0.0843811
0.0857544
0.0863647
0.0866699
0.0871277
0.0869751
0.0868225
0.0860596
0.0856018
0.0849915
0.0842285
0.0840759
0.0834656
0.0839233
0.083313
0.0842285
0.0843811
0.0848389
0.085144
0.085144
0.0856018
0.0857544
0.0849915
0.0846863
0.0836182
0.0827026
0.0811768
0.0801086
0.0790405
0.0778198
0.0769043
0.0756836
0.0746155
0.0737
0.0730896
0.0721741
0.0718689
0.071106
0.0701904
0.0695801
0.0680542
0.0671387
0.0654602
0.0634766
0.0616455
0.0595093
0.0572205
0.0546265
0.0527954
0.0506592
0.0486755
0.0468445
0.0448608
0.0436401
0.042572
0.0416565
0.0404358
0.0396729
0.0386047
0.037384
0.035553
0.0337219
0.0314331
0.0288391
0.0257874
0.0227356
0.0189209
0.0157166
0.0117493
0.00839233
0.00488281
0.00167847
-0.00167847
-0.00427246
-0.00686646
-0.00946045
-0.0115967
-0.0138855
-0.0161743
-0.018158
-0.0205994
-0.022583
-0.0250244
-0.0280762
-0.0308228
-0.0337219
-0.0369263
-0.039978
-0.042572
-0.0456238
-0.0482178
-0.0508118
-0.0524902
-0.0543213
-0.0556946
-0.0569153
-0.0575256
-0.0584412
-0.0592041
-0.0601196
-0.0602722
-0.0608826
-0.0614929
-0.0619507
-0.0627136
-0.0636292
-0.0642395
-0.0646973
-0.0654602
-0.0657654
-0.0662231
-0.0663757
-0.0663757
-0.065918
-0.0653076
-0.0643921
-0.0631714
-0.0624084
-0.0614929
-0.06073
-0.059967
-0.0590515
-0.0585938
-0.058136
-0.0582886
-0.0587463
-0.0588989
-0.0592041
-0.0595093
-0.059967
-0.059967
-0.0601196
-0.0598145
-0.0593567
-0.0584412
-0.0572205
-0.0563049
-0.0549316
-0.0535583
-0.0523376
-0.0518799
-0.0509644
-0.0505066
-0.0502014
-0.0502014
-0.050354
-0.0506592
-0.0509644
-0.0512695
-0.0514221
-0.0520325
-0.0518799
-0.0520325
-0.0512695
-0.0509644
-0.0502014
-0.0495911
-0.0485229
-0.0480652
-0.0474548
-0.0468445
-0.0463867
-0.0462341
-0.0463867
-0.0465393
-0.0468445
-0.0469971
-0.0474548
-0.0476074
-0.0479126
-0.0474548
-0.0471497
-0.0462341
-0.0450134
-0.0431824
-0.0418091
-0.0393677
-0.0370789
-0.0349426
-0.0328064
-0.0300598
-0.0285339
-0.0267029
-0.0254822
-0.0241089
-0.0231934
-0.022583
-0.0216675
-0.0213623
-0.020752
-0.0202942
-0.0192261
-0.0189209
-0.0178528
-0.0164795
-0.0149536
-0.0140381
-0.0125122
-0.0111389
-0.00976562
-0.00915527
-0.00808716
-0.00762939
-0.00701904
-0.00732422
-0.00762939
-0.00823975
-0.00869751
-0.00976562
-0.0102234
-0.0105286
-0.0111389
-0.0114441
-0.0114441
-0.0106812
-0.0106812
-0.00961304
-0.0088501
-0.00839233
-0.00793457
-0.00656128
-0.00640869
-0.0062561
-0.00595093
-0.00610352
-0.00640869
-0.00686646
-0.00717163
-0.00732422
-0.00717163
-0.00686646
-0.0062561
-0.00564575
-0.00427246
-0.00320435
-0.000915527
0.000915527
0.00366211
0.00579834
0.00808716
0.010376
0.01297
0.0154114
0.0175476
0.0190735
0.0205994
0.0221252
0.0239563
0.025177
0.0268555
0.0283813
0.0300598
0.0317383
0.0337219
0.0350952
0.0372314
0.0392151
0.040741
0.0430298
0.0456238
0.0479126
0.0506592
0.0531006
0.0556946
0.0582886
0.0601196
0.0622559
0.0645447
0.0669861
0.0692749
0.0717163
0.0743103
0.0773621
0.0801086
0.0831604
0.0856018
0.0886536
0.0907898
0.0923157
0.0939941
0.0944519
0.0944519
0.0939941
0.0927734
0.0914001
0.0889587
0.0869751
0.0843811
0.0816345
0.0793457
0.0770569
0.0740051
0.0723267
0.0700378
0.0683594
0.0666809
0.065155
0.0634766
0.0617981
0.0596619
0.0575256
0.0550842
0.0518799
0.0485229
0.0439453
0.0396729
0.0352478
0.0299072
0.0238037
0.018158
0.012207
0.0062561
0.0
-0.00564575
-0.0112915
-0.0164795
-0.0222778
-0.0271606
-0.0318909
-0.0367737
-0.0418091
-0.0465393
-0.0512695
-0.0559998
-0.0604248
-0.0650024
-0.0692749
-0.0732422
-0.0769043
-0.0798035
-0.0827026
-0.0852966
-0.0869751
-0.0881958
-0.088501
-0.0891113
-0.0892639
-0.0888062
-0.088501
-0.0881958
-0.0878906
-0.0880432
-0.0878906
-0.0881958
-0.0883484
-0.0889587
-0.0894165
-0.0900269
-0.0906372
-0.091095
-0.0914001
-0.0914001
-0.091095
-0.0901794
-0.0895691
-0.0886536
-0.0872803
-0.0860596
-0.0846863
-0.0828552
-0.0817871
-0.0802612
-0.0790405
-0.078125
-0.0778198
-0.0772095
-0.0767517
-0.0767517
-0.0767517
-0.0759888
-0.0756836
-0.075531
-0.0747681
-0.0740051
-0.0727844
-0.0712585
-0.0700378
-0.0686646
-0.0675964
-0.0663757
-0.0665283
-0.0663757
-0.0672913
-0.0679016
-0.0688171
-0.0689697
-0.0691223
-0.0682068
-0.0656128
-0.0614929
-0.0559998
-0.0479126
-0.0376892
-0.0238037
-0.00671387
0.0149536
0.0411987
0.0733948
0.111237
0.155182
0.204773
0.259705
0.318146
0.379486
0.442505
0.507355
0.572968
0.639191
0.704193
0.767822
0.827332
0.882263
0.929871
0.969238
0.998535
1.01669
1.0231
1.01669
0.997925
0.965881
0.921783
0.865631
0.798798
0.722351
0.637207
0.545502
0.448608
0.348511
0.24765
0.147705
0.0506592
-0.0410461
-0.12619
-0.203247
-0.271149
-0.328674
-0.375977
-0.411987
-0.438385
-0.453186
-0.458527
-0.455322
-0.443726
-0.426025
-0.402069
-0.373535
-0.341949
-0.308075
-0.2742
-0.239868
-0.207214
-0.176697
-0.148468
-0.123901
-0.101929
-0.0845337
-0.0709534
-0.06073
-0.0537109
-0.0502014
-0.0498962
-0.0511169
-0.0553894
-0.0611877
-0.0675964
-0.0743103
-0.0816345
-0.088501
-0.0947571
-0.100403
-0.104828
-0.108643
-0.110626
-0.111694
-0.111542
-0.109863
-0.108337
-0.105743
-0.102234
-0.0990295
-0.0961304
-0.0923157
-0.0894165
-0.0866699
-0.0842285
-0.0819397
-0.0802612
-0.0790405
-0.0775146
-0.0762939
-0.0752258
-0.0744629
-0.0733948
-0.0720215
-0.0714111
-0.0695801
-0.0683594
-0.0669861
-0.0657654
-0.0648499
-0.0636292
-0.062561
-0.0617981
-0.0610352
-0.06073
-0.0605774
-0.0604248
-0.0602722
-0.0598145
-0.0596619
-0.0585938
-0.0576782
-0.0564575
-0.0546265
-0.0527954
-0.050354
-0.0479126
-0.0457764
-0.0431824
-0.0408936
-0.0387573
-0.0366211
-0.03479
-0.0334167
-0.0320435
-0.0315857
-0.0306702
-0.030365
-0.0297546
-0.0297546
-0.0292969
-0.0286865
-0.0288391
-0.0276184
-0.0271606
-0.0262451
-0.0254822
-0.0241089
-0.0231934
-0.0221252
-0.0210571
-0.0202942
-0.0193787
-0.0189209
-0.0186157
-0.0186157
-0.0184631
-0.0183105
-0.0186157
-0.018158
-0.018158
-0.0178528
-0.0172424
-0.0160217
-0.0146484
-0.0131226
-0.0115967
-0.00991821
-0.00839233
-0.00640869
-0.00473022
-0.00320435
-0.00183105
-0.000610352
0.000915527
0.00167847
0.00289917
0.0038147
0.0050354
0.0062561
0.00778198
0.00946045
0.0112915
0.0137329
0.0158691
0.0186157
0.0209045
0.0238037
0.0268555
0.0296021
0.0320435
0.0346375
0.0367737
0.0384521
0.0396729
0.0408936
0.0418091
0.0430298
0.0442505
0.0454712
0.0465393
0.0474548
0.0489807
0.0505066
0.0518799
0.0535583
0.055542
0.0572205
0.0592041
0.0604248
0.0614929
0.0627136
0.0631714
0.0637817
0.0636292
0.0634766
0.0630188
0.062561
0.0616455
0.0614929
0.0608826
0.0604248
0.0602722
0.0601196
0.0604248
0.06073
0.0614929
0.0614929
0.0619507
0.0621033
0.0621033
0.0617981
0.0608826
0.0601196
0.0590515
0.0572205
0.055542
0.0538635
0.0520325
0.0505066
0.0488281
0.0468445
0.0456238
0.0437927
0.0430298
0.0421143
0.0415039
0.0411987
0.040741
0.0398254
0.0395203
0.0387573
0.0372314
0.0360107
0.0337219
0.0320435
0.0297546
0.0274658
0.0253296
0.0227356
0.0201416
0.0175476
0.0149536
0.0126648
0.010376
0.00762939
0.00534058
0.00289917
0.000610352
-0.00213623
-0.00473022
-0.00762939
-0.0106812
-0.0144958
-0.018158
-0.0218201
-0.0263977
-0.0299072
-0.0340271
-0.0379944
-0.0411987
-0.0444031
-0.0476074
-0.050354
-0.0527954
-0.0549316
-0.0569153
-0.0588989
-0.0601196
-0.0622559
-0.0637817
-0.0654602
-0.0675964
-0.0698853
-0.0718689
-0.0740051
-0.0765991
-0.0788879
-0.0811768
-0.083313
-0.085144
-0.0872803
-0.0881958
-0.0897217
-0.0904846
-0.0909424
-0.091095
-0.0915527
-0.0914001
-0.0915527
-0.0917053
-0.0918579
-0.0926208
-0.0932312
-0.0938416
-0.09552
-0.096283
-0.098114
-0.0991821
-0.100555
-0.101624
-0.102692
-0.103302
-0.103455
-0.10376
-0.103607
-0.103149
-0.102539
-0.102081
-0.101013
-0.100555
-0.0994873
-0.0993347
-0.0994873
-0.098877
-0.0993347
-0.0990295
-0.0996399
-0.0990295
-0.0991821
-0.098877
-0.0985718
-0.0982666
-0.0975037
-0.0964355
-0.0952148
-0.0939941
-0.0930786
-0.0917053
-0.0907898
-0.0895691
-0.0888062
-0.0881958
-0.0878906
-0.0881958
-0.0880432
-0.088501
-0.0888062
-0.0886536
-0.0888062
-0.0886536
-0.0889587
-0.0883484
-0.0874329
-0.0862122
-0.0849915
-0.0828552
-0.0814819
-0.0798035
-0.0779724
-0.0758362
-0.0744629
-0.0730896
-0.0717163
-0.0709534
-0.070343
-0.0700378
-0.0691223
-0.0686646
-0.0682068
-0.0679016
-0.0669861
-0.0662231
-0.0650024
-0.0634766
-0.0622559
-0.0605774
-0.0592041
-0.0575256
-0.0558472
-0.0547791
-0.0531006
-0.0521851
-0.0515747
-0.0506592
-0.0506592
-0.0498962
-0.0500488
-0.0498962
-0.0494385
-0.0494385
-0.0485229
-0.0483704
-0.04776
-0.0462341
-0.0448608
-0.0440979
-0.0424194
-0.0411987
-0.039978
-0.0393677
-0.0382996
-0.0376892
-0.037384
-0.0375366
-0.0375366
-0.0378418
-0.0387573
-0.0387573
-0.0389099
-0.0395203
-0.0395203
-0.0393677
-0.0395203
-0.0386047
-0.0376892
-0.0369263
-0.0357056
-0.03479
-0.0335693
-0.0323486
-0.0311279
-0.0305176
-0.0300598
-0.0297546
-0.0296021
-0.0292969
-0.0292969
-0.0289917
-0.0285339
-0.0279236
-0.0270081
-0.0256348
-0.0234985
-0.0219727
-0.0192261
-0.0170898
-0.0141907
-0.0109863
-0.00793457
-0.00488281
-0.00183105
0.00106812
0.00366211
0.00595093
0.00900269
0.0109863
0.0131226
0.0154114
0.017395
0.0196838
0.0215149
0.0239563
0.0262451
0.0288391
0.0302124
0.0323486
0.0341797
0.0361633
0.0375366
0.0386047
0.0395203
0.0410461
0.0419617
0.042572
0.0439453
0.0450134
0.0457764
0.0476074
0.0491333
0.0509644
0.0531006
0.0558472
0.0585938
0.0617981
0.0654602
0.0695801
0.0733948
0.0765991
0.0801086
0.0830078
0.0856018
0.0872803
0.0880432
0.0888062
0.0880432
0.0874329
0.0860596
0.0845337
0.08255
0.080719
0.0785828
0.0761414
0.0743103
0.0723267
0.0704956
0.0683594
0.0665283
0.0642395
0.0619507
0.0596619
0.0566101
0.0532532
0.0495911
0.0454712
0.0408936
0.0367737
0.0317383
0.0265503
0.0213623
0.0152588
0.00946045
0.00366211
-0.00198364
-0.00808716
-0.0138855
-0.0196838
-0.0256348
-0.0314331
-0.0367737
-0.042572
-0.0482178
-0.0537109
-0.0593567
-0.0646973
-0.070343
-0.0750732
-0.0802612
-0.0848389
-0.0883484
-0.0921631
-0.0952148
-0.0982666
-0.0997925
-0.101318
-0.101776
-0.102234
-0.102844
-0.102386
-0.102386
-0.102844
-0.102539
-0.102844
-0.103302
-0.104218
-0.104523
-0.105591
-0.106201
-0.106812
-0.106964
-0.106964
-0.107269
-0.107269
-0.106354
-0.105743
-0.104523
-0.102997
-0.101776
-0.100098
-0.0985718
-0.0967407
-0.0958252
-0.0949097
-0.0939941
-0.093689
-0.093689
-0.0938416
-0.0942993
-0.0941467
-0.0947571
-0.0950623
-0.0956726
-0.0956726
-0.0959778
-0.0956726
-0.0949097
-0.0941467
-0.0930786
-0.0918579
-0.0901794
-0.0894165
-0.0881958
-0.0878906
-0.0874329
-0.0875854
-0.0883484
-0.0891113
-0.0897217
-0.0895691
-0.0891113
-0.0871277
-0.0842285
-0.0790405
-0.0730896
-0.065155
-0.0547791
-0.0418091
-0.0256348
-0.00564575
0.0190735
0.0482178
0.0830078
0.123291
0.168915
0.218964
0.273285
0.3302
0.389404
0.450745
0.512695
0.575867
0.638428
0.699463
0.757904
0.811157
0.858459
0.897369
0.926971
0.945129
0.952148
0.94696
0.929108
0.899048
0.856476
0.802155
0.736847
0.662689
0.580292
0.490723
0.397186
0.300293
0.202179
0.105438
0.0120544
-0.0770569
-0.159607
-0.234222
-0.300293
-0.356598
-0.402374
-0.43808
-0.463562
-0.478668
-0.484314
-0.481415
-0.470734
-0.453186
-0.429077
-0.401154
-0.370178
-0.336761
-0.302277
-0.268097
-0.235138
-0.203247
-0.174866
-0.149384
-0.128174
-0.110321
-0.0964355
-0.0860596
-0.0796509
-0.0767517
-0.0764465
-0.0790405
-0.0831604
-0.0889587
-0.0959778
-0.103302
-0.110168
-0.117035
-0.123291
-0.128784
-0.133057
-0.136261
-0.138702
-0.139771
-0.139771
-0.139465
-0.138245
-0.136414
-0.134277
-0.131531
-0.129089
-0.126648
-0.124664
-0.122375
-0.120087
-0.118256
-0.116425
-0.114441
-0.11261
-0.110931
-0.109253
-0.106964
-0.104675
-0.102386
-0.100708
-0.0987244
-0.0964355
-0.0946045
-0.0927734
-0.0914001
-0.0898743
-0.0892639
-0.0880432
-0.0872803
-0.0865173
-0.0856018
-0.0846863
-0.083313
-0.0816345
-0.0801086
-0.0782776
-0.0761414
-0.0737
-0.0712585
-0.0686646
-0.0660706
-0.0637817
-0.0614929
-0.0592041
-0.0578308
-0.0563049
-0.0550842
-0.0546265
-0.0537109
-0.0537109
-0.0531006
-0.0527954
-0.0523376
-0.0518799
-0.0505066
-0.0492859
-0.0480652
-0.0463867
-0.0442505
-0.0422668
-0.0404358
-0.0382996
-0.0361633
-0.0346375
-0.0328064
-0.0315857
-0.0299072
-0.0289917
-0.0279236
-0.0268555
-0.0257874
-0.0248718
-0.0238037
-0.022583
-0.020752
-0.0192261
-0.0169373
-0.0149536
-0.012207
-0.0105286
-0.00762939
-0.00534058
-0.00320435
-0.000457764
0.00152588
0.00396729
0.0050354
0.00701904
0.00839233
0.0100708
0.0119019
0.0134277
0.0157166
0.0177002
0.0196838
0.0218201
0.0245667
0.027771
0.0306702
0.0337219
0.0366211
0.0396729
0.0419617
0.0442505
0.0468445
0.0479126
0.0495911
0.050354
0.0515747
0.0526428
0.0526428
0.0535583
0.0543213
0.0550842
0.0558472
0.0566101
0.0578308
0.0588989
0.0604248
0.0617981
0.0630188
0.0646973
0.0662231
0.0675964
0.0688171
0.0694275
0.0701904
0.0708008
0.0709534
0.0709534
0.071106
0.0714111
0.0718689
0.0721741
0.0726318
0.0733948
0.0744629
0.0759888
0.0762939
0.0778198
0.0787354
0.0794983
0.0804138
0.0805664
0.080719
0.0799561
0.0793457
0.0779724
0.0762939
0.0747681
0.0727844
0.0715637
0.0697327
0.0683594
0.0671387
0.0660706
0.0650024
0.0646973
0.0642395
0.0636292
0.0631714
0.0630188
0.062561
0.0619507
0.0610352
0.0598145
0.0579834
0.0563049
0.0544739
0.0518799
0.0494385
0.0471497
0.0448608
0.0421143
0.0402832
0.0384521
0.0364685
0.0343323
0.0323486
0.030365
0.0285339
0.0262451
0.0239563
0.0215149
0.0187683
0.0152588
0.0117493
0.00823975
0.00442505
0.000305176
-0.00350952
-0.00732422
-0.0114441
-0.0151062
-0.0187683
-0.0224304
-0.0256348
-0.0286865
-0.0314331
-0.0341797
-0.0366211
-0.0393677
-0.0422668
-0.0445557
-0.0476074
-0.0506592
-0.0532532
-0.0561523
-0.0593567
-0.0622559
-0.0646973
-0.0669861
-0.0691223
-0.0708008
-0.0723267
-0.0733948
-0.0737
-0.0743103
-0.0738525
-0.0738525
-0.0733948
-0.072937
-0.0726318
-0.0726318
-0.0721741
-0.0721741
-0.0723267
-0.0730896
-0.0738525
-0.0746155
-0.0753784
-0.075531
-0.0764465
-0.0765991
-0.0765991
-0.0762939
-0.0758362
-0.0750732
-0.0744629
-0.0737
-0.0726318
-0.0718689
-0.0709534
-0.070343
-0.0700378
-0.0695801
-0.0695801
-0.0700378
-0.0698853
-0.0704956
-0.0709534
-0.0708008
-0.0712585
-0.0709534
-0.0706482
-0.0697327
-0.0692749
-0.0675964
-0.0663757
-0.0648499
-0.0628662
-0.0613403
-0.059967
-0.0587463
-0.058136
-0.0569153
-0.0567627
-0.0566101
-0.0567627
-0.0570679
-0.0576782
-0.0578308
-0.058136
-0.0587463
-0.0588989
-0.0590515
-0.0588989
-0.0584412
-0.0576782
-0.0572205
-0.0567627
-0.0567627
-0.0559998
-0.0553894
-0.055542
-0.0556946
-0.0561523
-0.0567627
-0.057373
-0.0579834
-0.0585938
-0.0593567
-0.0596619
-0.059967
-0.0602722
-0.059967
-0.0598145
-0.0592041
-0.0585938
-0.0584412
-0.0570679
-0.0567627
-0.0558472
-0.0556946
-0.0552368
-0.0549316
-0.0553894
-0.0553894
-0.055542
-0.0563049
-0.0559998
-0.0564575
-0.0563049
-0.0559998
-0.0556946
-0.0549316
-0.0540161
-0.0526428
-0.0512695
-0.0498962
-0.0488281
-0.0468445
-0.0457764
-0.0448608
-0.0437927
-0.043335
-0.0430298
-0.0434875
-0.0436401
-0.0436401
-0.0442505
-0.0447083
-0.0447083
-0.0447083
-0.0445557
-0.0439453
-0.043335
-0.0422668
-0.0410461
-0.039978
-0.0386047
-0.037384
-0.0364685
-0.0350952
-0.0340271
-0.0335693
-0.0331116
-0.0325012
-0.032196
-0.0320435
-0.0318909
-0.0314331
-0.0312805
-0.0302124
-0.0291443
-0.027771
-0.0260925
-0.0244141
-0.0224304
-0.0196838
-0.0177002
-0.0154114
-0.0131226
-0.0108337
-0.00900269
-0.00671387
-0.00488281
-0.00350952
-0.00183105
-0.000610352
0.00106812
0.00244141
0.00427246
0.00610352
0.00778198
0.0100708
0.0125122
0.014801
0.0178528
0.0204468
0.0230408
0.0248718
0.0270081
0.0283813
0.0299072
0.0306702
0.0312805
0.0315857
0.0317383
0.0318909
0.032196
0.0325012
0.0331116
0.0346375
0.0357056
0.037384
0.0393677
0.0411987
0.0431824
0.0454712
0.0479126
0.050354
0.0526428
0.0550842
0.0575256
0.0593567
0.0611877
0.0622559
0.0631714
0.0643921
0.0645447
0.0648499
0.0650024
0.0650024
0.065155
0.0654602
0.0656128
0.0656128
0.065918
0.0662231
0.0660706
0.0656128
0.0656128
0.0648499
0.0636292
0.062561
0.0601196
0.0575256
0.0550842
0.0520325
0.0483704
0.0450134
0.0411987
0.0382996
0.0343323
0.030365
0.0265503
0.0218201
0.0177002
0.0134277
0.00869751
0.00366211
-0.00167847
-0.00717163
-0.01297
-0.0190735
-0.0256348
-0.0323486
-0.0389099
-0.0456238
-0.0518799
-0.0584412
-0.0642395
-0.0698853
-0.0749207
-0.0796509
-0.0834656
-0.0869751
-0.0897217
-0.0918579
-0.0935364
-0.0950623
-0.0961304
-0.0967407
-0.0973511
-0.0979614
-0.0984192
-0.0994873
-0.0997925
-0.100098
-0.100403
-0.100708
-0.100861
-0.100708
-0.100403
-0.0997925
-0.0991821
-0.0984192
-0.0973511
-0.0964355
-0.0958252
-0.0952148
-0.0944519
-0.0941467
-0.0935364
-0.0939941
-0.0941467
-0.0947571
-0.09552
-0.0961304
-0.0965881
-0.0973511
-0.0975037
-0.0976562
-0.0979614
-0.0971985
-0.0968933
-0.0964355
-0.0950623
-0.0941467
-0.0935364
-0.0923157
-0.0915527
-0.090332
-0.0898743
-0.0894165
-0.0892639
-0.088501
-0.0889587
-0.088501
-0.0881958
-0.0886536
-0.0886536
-0.0891113
-0.0894165
-0.0886536
-0.087738
-0.085907
-0.0830078
-0.0788879
-0.0735474
-0.0666809
-0.0576782
-0.0471497
-0.0346375
-0.0193787
-0.00106812
0.0212097
0.0480652
0.0801086
0.11795
0.160828
0.208893
0.261078
0.316467
0.374298
0.434418
0.495758
0.557556
0.619202
0.679779
0.73761
0.790405
0.83725
0.87616
0.904999
0.924683
0.932007
0.927277
0.910797
0.882263
0.841827
0.790558
0.72876
0.658112
0.579224
0.494385
0.404663
0.311279
0.217133
0.122833
0.0311279
-0.0559998
-0.137787
-0.21286
-0.279388
-0.336609
-0.384064
-0.421448
-0.447693
-0.464783
-0.471497
-0.469055
-0.458679
-0.440979
-0.417175
-0.388184
-0.35553
-0.32074
-0.285187
-0.249786
-0.215302
-0.182648
-0.153198
-0.126953
-0.10498
-0.0869751
-0.0735474
-0.0634766
-0.0576782
-0.0546265
-0.0540161
-0.0556946
-0.0595093
-0.0643921
-0.0697327
-0.075531
-0.0810242
-0.0865173
-0.0912476
-0.0952148
-0.098877
-0.101471
-0.103607
-0.104828
-0.105438
-0.105591
-0.105133
-0.104218
-0.103149
-0.101471
-0.0999451
-0.0973511
-0.0950623
-0.0926208
-0.0897217
-0.0871277
-0.0840759
-0.0811768
-0.078125
-0.0750732
-0.0721741
-0.0700378
-0.0679016
-0.0657654
-0.0643921
-0.0630188
-0.0619507
-0.0613403
-0.0605774
-0.0602722
-0.059967
-0.0592041
-0.0588989
-0.0584412
-0.0572205
-0.0563049
-0.0550842
-0.0543213
-0.0531006
-0.0512695
-0.0505066
-0.0489807
-0.0479126
-0.0473022
-0.0465393
-0.0463867
-0.045929
-0.0457764
-0.045929
-0.045929
-0.0448608
-0.0447083
-0.0440979
-0.042572
-0.0415039
-0.039978
-0.038147
-0.0361633
-0.0341797
-0.0320435
-0.0302124
-0.0279236
-0.0259399
-0.0244141
-0.022583
-0.0216675
-0.0209045
-0.0201416
-0.0195312
-0.0187683
-0.018158
-0.0169373
-0.0164795
-0.0146484
-0.0132751
-0.0114441
-0.0088501
-0.00671387
-0.00427246
-0.00183105
0.000610352
0.00305176
0.00518799
0.00762939
0.00946045
0.0111389
0.0126648
0.0137329
0.014801
0.0158691
0.0169373
0.0183105
0.0193787
0.0209045
0.0224304
0.0244141
0.0263977
0.0285339
0.0308228
0.032959
0.035553
0.0378418
0.039978
0.0418091
0.0439453
0.0457764
0.04776
0.0495911
0.0514221
0.0534058
0.0550842
0.0567627
0.0593567
0.0613403
0.0642395
0.0674438
0.0701904
0.0737
0.0765991
0.0796509
0.0823975
0.085144
0.0875854
0.0898743
0.0915527
0.0930786
0.0933838
0.0944519
0.0950623
0.0949097
0.0953674
0.0953674
0.09552
0.0956726
0.0961304
0.0967407
0.0971985
0.0976562
0.098114
0.0987244
0.098877
0.0993347
0.0993347
0.0990295
0.0987244
0.0971985
0.096283
0.0952148
0.0939941
0.0927734
0.0914001
0.0900269
0.0888062
0.0875854
0.0869751
0.0863647
0.0862122
0.0857544
0.0854492
0.085144
0.0848389
0.0845337
0.0840759
0.0831604
0.0819397
0.0805664
0.0785828
0.0767517
0.0746155
0.0724792
0.0701904
0.0683594
0.0663757
0.0643921
0.0630188
0.0614929
0.0601196
0.0587463
0.0576782
0.0563049
0.0546265
0.052948
0.0506592
0.0483704
0.0457764
0.0424194
0.0395203
0.0360107
0.0320435
0.0283813
0.0241089
0.0198364
0.0157166
0.0115967
0.00793457
0.00427246
0.000762939
-0.00228882
-0.00549316
-0.00854492
-0.0112915
-0.0146484
-0.0175476
-0.0204468
-0.0241089
-0.0276184
-0.0308228
-0.0344849
-0.0378418
-0.0413513
-0.0448608
-0.0476074
-0.050354
-0.052948
-0.0550842
-0.057373
-0.0587463
-0.0601196
-0.0611877
-0.0627136
-0.0634766
-0.0643921
-0.0656128
-0.0674438
-0.0692749
-0.0709534
-0.0733948
-0.0753784
-0.0776672
-0.0798035
-0.0820923
-0.0840759
-0.085907
-0.0875854
-0.0892639
-0.0901794
-0.091095
-0.0914001
-0.0920105
-0.0924683
-0.0924683
-0.0924683
-0.0927734
-0.0933838
-0.0938416
-0.0944519
-0.09552
-0.0965881
-0.0975037
-0.098114
-0.098877
-0.0996399
-0.100098
-0.10025
-0.10025
-0.0997925
-0.0987244
-0.0979614
-0.0968933
-0.0959778
-0.0950623
-0.0944519
-0.0932312
-0.0926208
-0.0921631
-0.0923157
-0.0924683
-0.0926208
-0.0927734
-0.0932312
-0.0933838
-0.0933838
-0.0933838
-0.0935364
-0.0932312
-0.0926208
-0.0921631
-0.0914001
-0.0898743
-0.0889587
-0.0880432
-0.0872803
-0.0866699
-0.085907
-0.0857544
-0.0857544
-0.0857544
-0.0862122
-0.0866699
-0.0865173
-0.0865173
-0.0865173
-0.0860596
-0.0857544
-0.0846863
-0.083313
-0.0816345
-0.0802612
-0.078125
-0.0765991
-0.0746155
-0.0727844
-0.0709534
-0.0695801
-0.068512
-0.0669861
-0.0665283
-0.0650024
-0.0642395
-0.0631714
-0.0624084
-0.0613403
-0.0604248
-0.0592041
-0.0576782
-0.0561523
-0.0541687
-0.0521851
-0.0500488
-0.0479126
-0.0462341
-0.0442505
-0.042572
-0.0410461
-0.039978
-0.0390625
-0.0386047
-0.0386047
-0.0384521
-0.0379944
-0.0378418
-0.0375366
-0.0372314
-0.0367737
-0.0357056
-0.03479
-0.0334167
-0.0326538
-0.0305176
-0.0289917
-0.0274658
-0.0253296
-0.0242615
-0.0224304
-0.0215149
-0.0205994
-0.0198364
-0.0192261
-0.0190735
-0.0184631
-0.0183105
-0.0180054
-0.0180054
-0.0177002
-0.0170898
-0.0161743
-0.015564
-0.0146484
-0.0138855
-0.0132751
-0.0123596
-0.0120544
-0.0117493
-0.0117493
-0.0119019
-0.012207
-0.0128174
-0.0132751
-0.0143433
-0.0146484
-0.0149536
-0.0158691
-0.0154114
-0.0152588
-0.0143433
-0.0131226
-0.0117493
-0.0102234
-0.00793457
-0.00595093
-0.00411987
-0.00152588
0.000457764
0.00305176
0.00518799
0.00732422
0.00869751
0.0105286
0.0123596
0.0140381
0.0160217
0.0180054
0.019989
0.0219727
0.0247192
0.0273132
0.0300598
0.032959
0.0354004
0.0378418
0.0396729
0.0419617
0.0436401
0.0453186
0.0466919
0.0482178
0.0491333
0.050354
0.0509644
0.0521851
0.0532532
0.0538635
0.0552368
0.0563049
0.0576782
0.059967
0.0624084
0.0645447
0.0672913
0.0695801
0.0724792
0.0752258
0.0776672
0.0794983
0.0808716
0.0820923
0.08255
0.0827026
0.08255
0.0823975
0.0816345
0.0808716
0.0801086
0.0793457
0.0784302
0.0776672
0.0772095
0.0762939
0.0750732
0.0737
0.0723267
0.0704956
0.0675964
0.0650024
0.0616455
0.0579834
0.0540161
0.0494385
0.0442505
0.0398254
0.0346375
0.0294495
0.0236511
0.0183105
0.0126648
0.00732422
0.00152588
-0.00366211
-0.00900269
-0.0144958
-0.0198364
-0.0248718
-0.0297546
-0.0349426
-0.039978
-0.0450134
-0.050354
-0.0552368
-0.0598145
-0.0645447
-0.0683594
-0.0720215
-0.075531
-0.0776672
-0.0794983
-0.0811768
-0.0817871
-0.0822449
-0.0820923
-0.0817871
-0.0814819
-0.0810242
-0.0804138
-0.0804138
-0.0802612
-0.0805664
-0.0810242
-0.0814819
-0.0819397
-0.0823975
-0.0827026
-0.0830078
-0.0834656
-0.0830078
-0.0828552
-0.0822449
-0.0810242
-0.0811768
-0.0794983
-0.0787354
-0.0778198
-0.0767517
-0.0762939
-0.0756836
-0.075531
-0.0756836
-0.0759888
-0.0769043
-0.0778198
-0.0787354
-0.0791931
-0.0801086
-0.0810242
-0.0816345
-0.0822449
-0.0822449
-0.08255
-0.0823975
-0.0822449
-0.0817871
-0.0816345
-0.0808716
-0.0799561
-0.0790405
-0.0785828
-0.0778198
-0.0785828
-0.0782776
-0.0793457
-0.0790405
-0.0791931
-0.0787354
-0.0765991
-0.0737
-0.0691223
-0.063324
-0.0553894
-0.0460815
-0.0343323
-0.0204468
-0.0038147
0.0160217
0.0398254
0.0680542
0.101013
0.13916
0.182648
0.229797
0.280151
0.333862
0.389709
0.446472
0.504303
0.562592
0.621338
0.677643
0.732117
0.781403
0.824738
0.860596
0.887299
0.903473
0.908966
0.902405
0.884247
0.854187
0.812378
0.759888
0.697479
0.626068
0.547333
0.462494
0.373077
0.281372
0.188751
0.0970459
0.00869751
-0.0753784
-0.153656
-0.224304
-0.286407
-0.339355
-0.38208
-0.415039
-0.438232
-0.452423
-0.456543
-0.452423
-0.440674
-0.422211
-0.398407
-0.370026
-0.33844
-0.304565
-0.270233
-0.235748
-0.202026
-0.171051
-0.14267
-0.11734
-0.09552
-0.078125
-0.0645447
-0.0544739
-0.0483704
-0.0456238
-0.045929
-0.0482178
-0.0523376
-0.0578308
-0.0648499
-0.0714111
-0.0782776
-0.0843811
-0.0900269
-0.0953674
-0.098877
-0.101776
-0.103607
-0.10437
-0.104675
-0.104065
-0.102997
-0.101471
-0.0996399
-0.0979614
-0.0961304
-0.0946045
-0.0927734
-0.0912476
-0.0897217
-0.0880432
-0.0868225
-0.0852966
-0.083313
-0.0816345
-0.0801086
-0.0782776
-0.0765991
-0.0750732
-0.0737
-0.0724792
-0.0714111
-0.0701904
-0.0697327
-0.0688171
-0.068512
-0.0683594
-0.0683594
-0.0680542
-0.067749
-0.0672913
-0.0665283
-0.065918
-0.0648499
-0.0628662
-0.0613403
-0.0592041
-0.0569153
-0.0547791
-0.0527954
-0.0505066
-0.0485229
-0.0465393
-0.0453186
-0.0437927
-0.0430298
-0.0421143
-0.0415039
-0.0408936
-0.0404358
-0.0396729
-0.0386047
-0.038147
-0.0370789
-0.035553
-0.0338745
-0.032196
-0.0305176
-0.0289917
-0.0273132
-0.0260925
-0.0239563
-0.0227356
-0.0213623
-0.0209045
-0.0205994
-0.0198364
-0.0193787
-0.0190735
-0.0189209
-0.0186157
-0.0177002
-0.0169373
-0.0154114
-0.0143433
-0.0126648
-0.0108337
-0.0088501
-0.00671387
-0.0050354
-0.00320435
-0.00152588
0.0
0.00137329
0.00228882
0.00305176
0.00350952
0.00396729
0.00442505
0.00518799
0.00549316
0.00610352
0.00717163
0.00823975
0.00976562
0.0115967
0.0134277
0.0157166
0.0178528
0.0198364
0.0221252
0.0239563
0.0259399
0.027771
0.0292969
0.0305176
0.0320435
0.0332642
0.03479
0.0361633
0.0375366
0.0392151
0.0404358
0.0419617
0.0440979
0.0460815
0.0488281
0.0514221
0.0535583
0.0556946
0.058136
0.0598145
0.0613403
0.0627136
0.063324
0.0642395
0.0645447
0.0642395
0.0645447
0.0645447
0.0642395
0.0637817
0.0642395
0.0640869
0.0645447
0.0650024
0.0660706
0.0666809
0.0672913
0.067749
0.0683594
0.0686646
0.0689697
0.0689697
0.0683594
0.0675964
0.0669861
0.0656128
0.0646973
0.0636292
0.0630188
0.0619507
0.0610352
0.06073
0.0602722
0.0604248
0.0602722
0.0605774
0.0605774
0.0604248
0.0605774
0.0595093
0.0588989
0.0578308
0.0566101
0.055542
0.0534058
0.0517273
0.0497437
0.04776
0.0460815
0.0440979
0.0419617
0.0402832
0.0392151
0.0376892
0.0364685
0.0352478
0.0335693
0.032196
0.0305176
0.0285339
0.0267029
0.0242615
0.0212097
0.018158
0.0151062
0.0114441
0.00808716
0.00442505
0.0012207
-0.00183105
-0.00518799
-0.00808716
-0.0108337
-0.0134277
-0.0158691
-0.0180054
-0.020752
-0.0228882
-0.0254822
-0.0280762
-0.0305176
-0.032959
-0.0361633
-0.0390625
-0.0424194
-0.045929
-0.0491333
-0.0521851
-0.0550842
-0.0579834
-0.059967
-0.0619507
-0.0634766
-0.0643921
-0.0656128
-0.0663757
-0.0666809
-0.0674438
-0.0674438
-0.0679016
-0.0683594
-0.068512
-0.0694275
-0.0701904
-0.0706482
-0.0718689
-0.0720215
-0.072937
-0.0735474
-0.0740051
-0.0740051
-0.0737
-0.0737
-0.0726318
-0.0720215
-0.0715637
-0.0704956
-0.0698853
-0.0694275
-0.0688171
-0.0686646
-0.0686646
-0.0688171
-0.0697327
-0.0701904
-0.071106
-0.0718689
-0.0723267
-0.0733948
-0.0741577
-0.0740051
-0.0741577
-0.0743103
-0.0733948
-0.0727844
-0.0715637
-0.0704956
-0.0692749
-0.0682068
-0.0674438
-0.0665283
-0.0660706
-0.0656128
-0.0653076
-0.0654602
-0.0654602
-0.0657654
-0.0657654
-0.0654602
-0.0653076
-0.065155
-0.0646973
-0.0637817
-0.0628662
-0.0619507
-0.0610352
-0.0602722
-0.0590515
-0.0585938
-0.0578308
-0.057373
-0.0569153
-0.0569153
-0.0575256
