-0.202332
-0.203247
-0.204773
-0.205078
-0.205078
-0.205994
-0.207214
-0.20752
-0.207825
-0.208435
-0.20874
-0.209045
-0.209045
-0.209656
-0.210266
-0.209656
-0.209961
-0.210571
-0.210876
-0.210876
-0.210876
-0.210876
-0.210876
-0.210266
-0.211487
-0.210571
-0.210571
-0.210571
-0.209351
-0.209656
-0.20813
-0.209045
-0.208435
-0.20813
-0.20813
-0.207214
-0.206909
-0.206604
-0.206299
-0.205994
-0.205383
-0.205078
-0.204163
-0.203857
-0.203247
-0.203247
-0.202942
-0.201416
-0.201416
-0.200806
-0.19989
-0.198669
-0.198364
-0.197754
-0.195923
-0.195618
-0.194397
-0.194397
-0.193176
-0.192566
-0.192261
-0.191345
-0.190125
-0.189514
-0.188293
-0.187378
-0.187073
-0.185242
-0.184631
-0.183716
-0.1828
-0.181274
-0.180054
-0.180054
-0.179138
-0.177917
-0.177307
-0.176086
-0.174866
-0.175171
-0.173645
-0.173035
-0.172119
-0.171509
-0.171204
-0.170288
-0.168762
-0.168762
-0.167847
-0.167847
-0.166626
-0.165405
-0.16449
-0.164185
-0.163269
-0.162659
-0.161743
-0.160828
-0.159912
-0.160217
-0.158691
-0.158081
-0.15686
-0.156555
-0.15625
-0.15625
-0.155334
-0.154419
-0.153809
-0.154114
-0.153198
-0.152893
-0.151672
-0.151367
-0.151367
-0.150757
-0.150452
-0.150757
-0.149841
-0.149841
-0.149841
-0.148926
-0.148926
-0.148621
-0.149231
-0.148621
-0.14801
-0.148315
-0.1474
-0.14801
-0.1474
-0.1474
-0.147705
-0.1474
-0.14679
-0.14679
-0.147095
-0.147095
-0.147705
-0.147095
-0.147095
-0.1474
-0.147705
-0.147705
-0.148315
-0.148926
-0.148621
-0.148926
-0.149536
-0.149231
-0.149231
-0.150452
-0.150452
-0.150757
-0.150452
-0.151672
-0.151672
-0.152283
-0.152893
-0.153503
-0.153809
-0.152893
-0.153809
-0.154724
-0.154419
-0.155029
-0.15564
-0.155945
-0.15564
-0.156555
-0.15686
-0.15686
-0.15686
-0.157166
-0.158081
-0.158081
-0.158081
-0.158386
-0.158386
-0.158691
-0.158691
-0.158691
-0.158081
-0.158997
-0.158691
-0.158081
-0.15686
-0.157471
-0.156555
-0.15564
-0.155029
-0.154419
-0.152588
-0.152283
-0.149841
-0.148926
-0.14679
-0.145569
-0.144043
-0.140381
-0.137939
-0.134277
-0.130615
-0.126953
-0.122375
-0.118103
-0.112915
-0.106812
-0.0994873
-0.0918579
-0.0848389
-0.0759888
-0.0662231
-0.0561523
-0.0442505
-0.0326538
-0.0195312
-0.00488281
0.0106812
0.0271606
0.043335
0.062561
0.0796509
0.101013
0.123291
0.146484
0.171509
0.196228
0.223694
0.25116
0.281067
0.31189
0.343323
0.377197
0.411377
0.446167
0.482483
0.519409
0.558777
0.597534
0.637817
0.679016
0.718994
0.761108
0.803223
0.846558
0.889282
0.932922
0.975952
1.01929
1.06232
1.10535
1.14716
1.19019
1.2326
1.2735
1.3147
1.35468
1.39435
1.4328
1.47064
1.50787
1.54449
1.57898
1.61407
1.64734
1.67969
1.71112
1.74133
1.77063
1.79993
1.82617
1.8515
1.87683
1.90094
1.92352
1.94519
1.96625
1.98517
2.00348
2.02087
2.03796
2.05261
2.06726
2.08038
2.0929
2.1051
2.11578
2.12555
2.13409
2.14264
2.15057
2.15698
2.16278
2.16797
2.17194
2.17651
2.17957
2.18262
2.18384
2.18506
2.18506
2.18506
2.18536
2.18414
2.18353
2.18109
2.17896
2.17682
2.17285
2.1698
2.16583
2.16156
2.15759
2.1521
2.14752
2.14081
2.13623
2.13043
2.12433
2.11823
2.11151
2.10449
2.09778
2.09106
2.08405
2.07642
2.06909
2.06116
2.05353
2.0462
2.03735
2.03003
2.02209
2.01324
2.00562
1.99799
1.98914
1.9809
1.97266
1.96503
1.95679
1.94763
1.93939
1.93054
1.92261
1.91406
1.90674
1.8985
1.88995
1.88202
1.87408
1.86584
1.85791
1.85028
1.84265
1.83411
1.82648
1.81885
1.81091
1.80389
1.79626
1.78772
1.78009
1.77429
1.76636
1.75934
1.75232
1.74561
1.73859
1.73218
1.72546
1.71906
1.71265
1.70563
1.70044
1.69403
1.68823
0.520325
0.519714
0.519104
0.518799
0.518188
0.516663
0.516052
0.515137
0.514526
0.513306
0.51239
0.510559
0.509033
0.508118
0.506592
0.506287
0.50415
0.502014
0.502014
0.499878
0.498047
0.496521
0.494995
0.492249
0.490417
0.489197
0.48645
0.484924
0.483398
0.480957
0.478821
0.477295
0.474548
0.472717
0.46936
0.467834
0.466309
0.464172
0.461731
0.458984
0.456543
0.454102
0.451965
0.449524
0.446472
0.444336
0.441589
0.439758
0.436096
0.43396
0.431824
0.428772
0.426636
0.425415
0.421448
0.419312
0.416565
0.414124
0.411682
0.409546
0.406799
0.403442
0.401611
0.39978
0.396423
0.394592
0.391235
0.389709
0.387268
0.384521
0.38269
0.380859
0.377808
0.376282
0.374451
0.371704
0.369873
0.368042
0.36499
0.363159
0.362244
0.359802
0.357666
0.355835
0.353699
0.352173
0.350647
0.348816
0.34668
0.344543
0.343018
0.341797
0.339966
0.33844
0.336609
0.335693
0.333252
0.332336
0.331421
0.329285
0.327759
0.325623
0.324097
0.323181
0.321655
0.320435
0.318909
0.317688
0.315247
0.314026
0.3125
0.310974
0.310059
0.308533
0.307617
0.306396
0.305176
0.303345
0.302124
0.300903
0.299377
0.297852
0.296936
0.295105
0.294495
0.292358
0.292053
0.290222
0.289001
0.288391
0.28717
0.28656
0.285034
0.283508
0.283203
0.280762
0.280457
0.279541
0.279236
0.27771
0.276794
0.275879
0.274658
0.274048
0.272522
0.272217
0.270996
0.270386
0.26825
0.267944
0.267639
0.266418
0.265503
0.264587
0.263672
0.262756
0.262146
0.261536
0.26062
0.259399
0.257874
0.258484
0.256348
0.256653
0.255432
0.254211
0.253906
0.253296
0.25238
0.252075
0.25116
0.250244
0.250854
0.249329
0.249939
0.249634
0.249023
0.247498
0.247192
0.246277
0.245667
0.245667
0.244751
0.243225
0.24292
0.24231
0.24231
0.24231
0.241699
0.240479
0.240784
0.239868
0.240173
0.240479
0.238953
0.238342
0.238342
0.238647
0.238342
0.237427
0.237122
0.236816
0.237427
0.236511
0.237122
0.237122
0.235596
0.236511
0.236816
0.236511
0.237427
0.237427
0.236511
0.238037
0.238037
0.238647
0.238647
0.239563
0.240479
0.239868
0.240173
0.240784
0.240784
0.242004
0.241699
0.242615
0.243225
0.24353
0.244751
0.245361
0.246277
0.246582
0.247192
0.249329
0.249329
0.250854
0.250854
0.25238
0.252991
0.253906
0.254822
0.256042
0.256958
0.258789
0.259399
0.26062
0.261536
0.263062
0.264587
0.265503
0.267334
0.268555
0.270386
0.271606
0.273438
0.275269
0.276489
0.279236
0.281372
0.283508
0.285339
0.288086
0.291138
0.293274
0.296631
0.299377
0.302734
0.305786
0.309143
0.31311
0.316772
0.321045
0.325317
0.329895
0.335083
0.340271
0.346069
0.350647
0.356445
0.363159
0.369263
0.375977
0.382385
0.389709
0.397034
0.404053
0.411987
0.420837
0.428772
0.437622
0.446472
0.456543
0.464478
0.474548
0.484924
0.49469
0.504761
0.515442
0.525513
0.537415
0.547791
0.558472
0.570374
0.58197
0.592957
0.604858
0.616455
0.628357
0.640564
0.652466
0.664368
0.677185
0.689392
0.701904
0.713806
0.725708
0.73822
0.750122
0.761719
0.775146
0.785522
0.797729
0.809631
0.820618
0.832214
0.843506
0.854187
0.865784
0.875549
0.886536
0.897217
0.906372
0.916138
0.925903
0.935669
0.944214
0.952759
0.962219
0.970154
0.978394
0.986023
0.993347
1.00098
1.00739
1.0144
1.0202
1.02722
1.03271
1.0379
1.04279
1.04767
1.05255
1.05682
1.06049
1.06476
1.06812
1.07025
1.07422
1.07574
1.0788
1.08032
1.08215
1.08246
1.08398
1.0849
1.08582
1.08551
1.08551
1.08521
1.08521
1.08429
1.08337
1.08215
1.08093
1.0791
1.07727
1.07574
1.07361
1.07208
1.06842
1.06659
1.06323
1.06018
1.05713
1.05347
1.05042
1.04645
1.04309
1.03973
1.03668
1.03241
1.02814
1.02448
1.02051
1.01654
1.01288
1.008
1.00494
1.00006
0.996094
0.991516
0.987244
0.982361
0.977783
0.974426
0.969238
0.964966
0.959778
0.956116
0.951233
0.947266
0.942688
0.939026
0.933838
0.92926
0.925598
0.921021
0.917969
0.912781
0.908813
0.903625
0.900574
0.896606
0.892029
0.887756
0.882874
0.879822
0.875244
0.871582
0.867615
0.863342
0.860596
0.856628
0.852051
0.848694
0.845642
0.84137
0.837708
0.834045
0.830383
0.826721
0.823669
0.819092
0.81665
0.812683
0.809021
0.805359
0.802002
0.79834
0.795288
0.791321
0.788574
0.785217
0.782166
0.777893
0.775146
0.772095
0.768127
0.764771
0.760803
0.757446
0.7547
0.750427
0.74646
0.742798
0.739136
0.735779
0.732422
0.726929
0.723572
0.719604
0.715942
0.711365
0.707092
0.70343
0.699158
0.694885
0.690613
0.686646
0.681458
0.67749
0.673828
0.668945
0.664062
0.659485
0.655518
0.650635
0.646667
0.641785
0.636902
0.632019
0.628052
0.623474
0.618896
0.614319
0.610352
0.605774
0.600281
0.597229
0.592651
0.587463
0.584106
0.580139
0.574951
0.571594
0.567322
0.563354
0.559082
0.55603
0.551758
0.548706
0.544739
0.541992
0.53833
0.535278
0.531616
0.529785
0.526123
0.523682
0.521851
0.518188
0.515747
0.513611
0.511475
0.508423
0.506897
0.504761
0.502625
0.500488
0.498962
0.496521
0.49469
0.493469
0.492249
0.490417
0.488586
0.487976
0.486145
0.48584
0.484314
0.483704
0.483093
0.481873
0.481262
0.479736
0.479736
0.479431
0.479431
0.478516
0.4776
0.477905
0.477905
0.47699
0.477905
0.477905
0.4776
0.4776
0.477905
0.478516
0.479126
0.4776
0.478821
0.479431
0.480042
0.479736
0.480347
0.480347
0.481567
0.481262
0.482178
0.483093
0.483398
0.483704
0.484314
0.484924
0.485535
0.485229
0.48645
0.48645
0.487366
0.487061
0.487366
0.487366
0.487976
0.487671
0.488586
0.488586
0.488586
0.488586
0.488281
0.488586
0.489197
0.489197
0.488892
0.488586
0.488281
0.488892
0.488586
0.488892
0.487976
0.487976
0.487671
0.487061
0.48584
0.48584
0.484924
0.484924
0.484009
0.482178
0.481873
0.481262
0.480652
0.479736
0.479126
0.4776
0.476685
0.475769
0.474854
0.473328
0.472412
0.470886
0.46936
0.468445
0.467224
0.465088
0.463867
0.462036
0.460815
0.4599
0.457153
0.456543
0.454102
0.451355
0.449829
0.449219
0.447083
0.444641
0.443726
0.441589
0.439758
0.438538
0.436401
0.433655
0.432129
0.430908
0.428162
0.426025
0.424805
0.421448
0.419312
0.418396
0.415955
0.414124
0.411682
0.409851
0.40741
0.404968
0.403748
0.401611
0.39917
0.395813
0.395203
0.392151
0.390625
0.388184
0.385742
0.383301
0.381165
0.379333
0.377502
0.374756
0.372925
0.371094
0.368652
0.366516
0.36438
0.362549
0.360718
0.358582
0.35553
0.354004
0.352783
0.350342
0.348206
0.346375
0.343933
0.342102
0.339661
0.337219
0.335388
0.333862
0.332031
0.3302
0.328369
0.327148
0.324707
0.323181
0.321655
0.320129
0.318604
0.316467
0.314941
0.31311
0.31189
0.310974
0.308533
0.307312
0.305786
0.30426
0.302429
0.301514
0.299683
0.298462
0.297241
0.296021
0.295105
0.293579
0.292053
0.290833
0.288696
0.287781
0.28656
0.285339
0.283813
0.282288
0.281067
0.279846
0.278931
0.2771
0.276489
0.275269
0.274048
0.273743
0.271912
0.270691
0.269165
0.269165
0.267029
0.266724
0.265198
0.265198
0.263672
0.262756
0.261841
0.26123
0.260315
0.258484
0.258179
0.256958
0.256653
0.255737
0.255127
0.254822
0.253296
0.25238
0.251465
0.251465
0.250549
0.249634
0.248718
0.247803
0.246887
0.246582
0.245972
0.245361
0.243835
0.244141
0.242615
0.24292
0.242004
0.240784
0.240173
0.239258
0.238647
0.238342
0.237427
0.236816
0.236206
0.235901
0.235596
0.234375
0.233765
0.233154
0.233154
0.232544
0.232239
0.231323
0.230713
0.230408
0.230103
0.230408
0.229187
0.228882
0.228577
0.228882
0.228882
0.228271
0.227661
0.227661
0.227661
0.227661
0.228271
0.227966
0.227356
0.227051
0.226746
0.227356
0.227661
0.227661
0.227661
0.227661
0.227966
0.228577
0.228271
0.228882
0.228577
0.229492
0.229492
0.230408
0.230408
0.231018
0.231018
0.231018
0.231628
0.231323
0.232239
0.232849
0.232849
0.233459
0.234375
0.23468
0.236206
0.236206
0.236511
0.237427
0.237732
0.239258
0.238342
0.239563
0.240479
0.241089
0.242004
0.242615
0.244141
0.244141
0.244751
0.245972
0.246887
0.247803
0.248413
0.249939
0.25116
0.251465
0.253296
0.254211
0.255127
0.255737
0.257263
0.258484
0.258789
0.261841
0.262146
0.263062
0.264893
0.266724
0.267639
0.26947
0.270081
0.272217
0.274963
0.276794
0.279236
0.281372
0.284424
0.286255
0.289001
0.292358
0.29541
0.298767
0.302734
0.305786
0.309448
0.31311
0.317688
0.321655
0.327454
0.332336
0.336609
0.342712
0.34729
0.353088
0.360107
0.365906
0.371704
0.379639
0.387268
0.393982
0.402832
0.410156
0.417786
0.426941
0.435181
0.443726
0.453491
0.462036
0.472107
0.482483
0.491943
0.501404
0.512695
0.522766
0.533142
0.544739
0.55542
0.567627
0.578613
0.5896
0.600586
0.613403
0.625
0.637207
0.649109
0.6604
0.672913
0.684814
0.696106
0.708313
0.72052
0.732117
0.744019
0.75531
0.766907
0.779114
0.790405
0.801392
0.813293
0.823975
0.835571
0.846863
0.857544
0.868225
0.878296
0.888672
0.898743
0.907898
0.917053
0.926208
0.935364
0.943909
0.952759
0.960999
0.968933
0.975952
0.983887
0.991516
0.99823
1.00403
1.01013
1.01715
1.02203
1.02753
1.03302
1.0379
1.04248
1.04614
1.04919
1.05316
1.05682
1.05865
1.06171
1.06354
1.06689
1.06781
1.06964
1.07056
1.07269
1.07269
1.0733
1.07422
1.07391
1.07361
1.0733
1.07208
1.07178
1.07056
1.06964
1.0672
1.06628
1.06476
1.06232
1.06018
1.05865
1.0556
1.05347
1.05042
1.04797
1.04462
1.04187
1.03912
1.03638
1.0321
1.02875
1.02448
1.02112
1.01715
1.0141
1.00983
1.00616
1.00189
0.997925
0.994873
0.990295
0.986023
0.982361
0.979004
0.975342
0.970459
0.967102
0.96344
0.958252
0.95459
0.950928
0.94635
0.942688
0.938721
0.935364
0.931396
0.92804
0.924072
0.9198
0.915833
0.91217
0.908508
0.904846
0.901489
0.896912
0.893555
0.889893
0.886841
0.883484
0.878906
0.874939
0.871582
0.868225
0.865173
0.860901
0.857849
0.854187
0.850525
0.847168
0.843506
0.839539
0.836487
0.832214
0.829468
0.826416
0.822449
0.819397
0.815735
0.812378
0.809021
0.805359
0.802002
0.798035
0.794983
0.792236
0.787964
0.784302
0.78125
0.777588
0.773926
0.770874
0.766602
0.76355
0.759277
0.756226
0.752258
0.748291
0.743713
0.740967
0.737
0.733032
0.72876
0.724487
0.720215
0.716553
0.71228
0.708618
0.70343
0.700073
0.695801
0.691223
0.687866
0.683594
0.678406
0.674438
0.669861
0.666199
0.661926
0.657043
0.652771
0.648499
0.644531
0.638428
0.635071
0.630798
0.626221
0.621948
0.617676
0.613403
0.610046
0.605774
0.600891
0.597534
0.592957
0.589294
0.585632
0.58136
0.577698
0.574341
0.570374
0.566711
0.563049
0.559692
0.556946
0.552979
0.550232
0.546265
0.543518
0.541382
0.538635
0.535278
0.533142
0.529785
0.528259
0.525818
0.523376
0.521545
0.519714
0.517578
0.515747
0.513611
0.511475
0.509949
0.508423
0.507202
0.506287
0.504456
0.503235
0.502319
0.501709
0.500183
0.499573
0.499573
0.498352
0.497437
0.497437
0.496826
0.495605
0.495911
0.494995
0.494995
0.49469
0.493469
0.493774
0.493469
0.493469
0.492859
0.492554
0.493774
0.492554
0.492859
0.493164
0.49408
0.49408
0.493469
0.494385
0.49408
0.494995
0.49469
0.4953
0.494995
0.495911
0.495605
0.495605
0.495911
0.495605
0.495605
0.495911
0.495911
0.495605
0.496216
0.496521
0.497131
0.497131
0.496826
0.496521
0.497437
0.497131
0.497131
0.496826
0.497131
0.497437
0.497742
0.497131
0.497131
0.496826
0.497437
0.495911
0.495911
0.4953
0.495911
0.495605
0.494995
0.494995
0.49408
0.493164
0.492554
0.491333
0.491333
0.491028
0.489197
0.489197
0.487976
0.487671
0.48645
0.485535
0.484619
0.483398
0.481873
0.480957
0.479431
0.477905
0.4776
0.475464
0.473938
0.472717
0.471497
0.470276
0.46875
0.466614
0.464783
0.463867
0.462036
0.459595
0.458069
0.456238
0.454712
0.451965
0.451355
0.449524
0.446472
0.445251
0.443115
0.441589
0.439453
0.437012
0.434875
0.431824
0.430603
0.428162
0.426025
0.423584
0.421448
0.419006
0.41748
0.415344
0.412903
0.410461
0.408936
0.406189
0.404663
0.401917
0.39978
0.397949
0.395813
0.393372
0.391541
0.389709
0.387268
0.385132
0.383606
0.381165
0.378723
0.377197
0.375061
0.37384
0.371399
0.369568
0.367737
0.36499
0.362854
0.361633
0.359497
0.357666
0.35614
0.354004
0.352173
0.350037
0.348206
0.346985
0.345459
0.343018
0.341797
0.339355
0.338135
0.336914
0.334778
0.332031
0.330811
0.329285
0.326843
0.326843
0.325012
0.323181
0.32196
0.320435
0.318604
0.317383
0.317078
0.315857
0.313721
0.31311
0.310974
0.310364
0.309448
0.307922
0.307007
0.305481
0.30426
0.303345
0.302734
0.301208
0.299683
0.299377
0.298462
0.297546
0.296631
0.295715
0.295105
0.293579
0.292053
0.291443
0.291138
0.290527
0.289612
0.288391
0.288696
0.28717
0.28656
0.28595
0.285339
0.284729
0.284729
0.283813
0.283813
0.283203
0.282898
0.282898
0.281982
0.281677
0.281372
0.281067
0.279846
0.279846
0.278931
0.278625
0.278625
0.278015
0.278015
0.27771
0.276794
0.276489
0.276489
0.275879
0.275574
0.274658
0.274048
0.275269
0.274048
0.274048
0.272522
0.272522
0.271606
0.271301
0.270691
0.270691
0.270081
0.270081
0.269775
0.268555
0.269165
0.26825
0.267334
0.267334
0.267334
0.266418
0.266418
0.266113
0.265503
0.264282
0.263977
0.264282
0.263672
0.262756
0.262756
0.262146
0.26123
0.26123
0.26062
0.260315
0.259399
0.259094
0.259094
0.259094
0.257874
0.257568
0.257568
0.256958
0.256653
0.256348
0.256348
0.255432
0.256042
0.255127
0.255127
0.254822
0.254517
0.254517
0.254517
0.253906
0.254211
0.254822
0.254517
0.254517
0.254517
0.254211
0.254517
0.255127
0.254211
0.254211
0.254822
0.254517
0.255127
0.255737
0.254822
0.254822
0.255127
0.255737
0.255737
0.256042
0.256042
0.256653
0.257263
0.257568
0.257263
0.257263
0.259094
0.259399
0.26001
0.26062
0.26123
0.261841
0.262756
0.263062
0.264282
0.264587
0.265503
0.266113
0.266724
0.268555
0.26886
0.270386
0.270996
0.271912
0.272217
0.274048
0.274658
0.276184
0.2771
0.278015
0.279236
0.280457
0.281677
0.282898
0.285034
0.286255
0.287781
0.289612
0.292053
0.293579
0.295715
0.297852
0.299377
0.302734
0.304871
0.307922
0.310059
0.313416
0.316467
0.319824
0.323486
0.326843
0.330811
0.335693
0.339661
0.343628
0.348511
0.353699
0.358887
0.36438
0.369873
0.376282
0.382385
0.388184
0.395203
0.402222
0.410156
0.41748
0.425415
0.432739
0.439758
0.449829
0.457764
0.466003
0.476685
0.485229
0.49469
0.503845
0.514221
0.524292
0.534668
0.545654
0.556335
0.566711
0.578003
0.588684
0.600891
0.611877
0.623779
0.635071
0.646667
0.658264
0.669861
0.681458
0.693665
0.704956
0.717163
0.729065
0.740051
0.751953
0.763245
0.775757
0.786438
0.797424
0.809021
0.819702
0.830383
0.84198
0.852356
0.862732
0.872803
0.882874
0.892639
0.90271
0.912476
0.921021
0.930176
0.939026
0.948181
0.955505
0.96344
0.97168
0.979614
0.986328
0.993347
1.00006
1.00677
1.01288
1.01898
1.02539
1.02936
1.03485
1.03882
1.04401
1.04797
1.05225
1.0556
1.05927
1.06201
1.06567
1.06781
1.06934
1.07056
1.0733
1.07513
1.07574
1.07697
1.07758
1.07819
1.07788
1.07758
1.07758
1.07666
1.07574
1.07483
1.07452
1.073
1.07086
1.06934
1.06689
1.06537
1.06293
1.06049
1.05865
1.05591
1.05316
1.05011
1.04706
1.0434
1.04034
1.03699
1.03333
1.02997
1.026
1.02234
1.01868
1.01562
1.01044
1.00647
1.00342
0.99884
0.995178
0.990295
0.986328
0.982361
0.978394
0.973816
0.970459
0.965576
0.962219
0.957031
0.952454
0.949097
0.944214
0.939941
0.935974
0.931702
0.92804
0.923767
0.919495
0.914917
0.91156
0.906982
0.90332
0.899048
0.895081
0.891418
0.887451
0.883789
0.880737
0.876465
0.872498
0.86792
0.864868
0.861206
0.858459
0.853882
0.85022
0.846252
0.843506
0.839844
0.836792
0.832825
0.830688
0.826416
0.823059
0.819397
0.816956
0.812378
0.810242
0.805969
0.801697
0.79834
0.795898
0.792542
0.787659
0.784912
0.78186
0.778198
0.774231
0.770569
0.767212
0.763245
0.759583
0.756226
0.751648
0.748291
0.744019
0.740051
0.736084
0.731506
0.728455
0.723877
0.719604
0.715332
0.710754
0.706787
0.701599
0.697632
0.693665
0.689087
0.684814
0.680542
0.67627
0.671692
0.667419
0.663147
0.658569
0.654602
0.649414
0.644836
0.640259
0.635986
0.631714
0.626526
0.621948
0.617981
0.613708
0.609741
0.605164
0.600891
0.596313
0.592041
0.588379
0.584717
0.580444
0.576782
0.572205
0.569458
0.565186
0.562439
0.558167
0.554504
0.551453
0.548096
0.545349
0.541382
0.539246
0.536194
0.533752
0.530701
0.52887
0.526123
0.524292
0.521851
0.519714
0.517883
0.515747
0.513611
0.51178
0.510864
0.509033
0.507202
0.505676
0.504761
0.50354
0.502014
0.501709
0.499878
0.499573
0.498657
0.497437
0.496826
0.496521
0.494995
0.494995
0.494995
0.494385
0.493469
0.493164
0.493164
0.492859
0.492554
0.492249
0.492554
0.493469
0.492249
0.493164
0.493164
0.492554
0.493469
0.49408
0.493774
0.493774
0.494995
0.494995
0.494995
0.495605
0.495911
0.495605
0.496521
0.497131
0.497131
0.497742
0.498352
0.498047
0.498352
0.498962
0.499268
0.500183
0.499573
0.499573
0.499573
0.500488
0.500793
0.499878
0.500488
0.501099
0.500488
0.501099
0.500488
0.500793
0.500793
0.501099
0.500488
0.501099
0.500183
0.499573
0.499573
0.498657
0.498657
0.498047
0.498047
0.497437
0.496826
0.496521
0.494995
0.4953
0.49469
0.493164
0.492554
0.491028
0.490417
0.488892
0.488586
0.487366
0.486755
0.485229
0.484009
0.483398
0.482178
0.480347
0.478821
0.47699
0.476685
0.475464
0.473022
0.471802
0.470581
0.46814
0.467529
0.465393
0.463562
0.462036
0.4599
0.458984
0.456543
0.454712
0.453186
0.450745
0.449524
0.447693
0.444336
0.443115
0.442505
0.439758
0.437622
0.435486
0.433655
0.432129
0.429077
0.426941
0.42511
0.422974
0.421448
0.418701
0.416565
0.414429
0.412598
0.410461
0.40863
0.406799
0.404358
0.402527
0.39978
0.398254
0.396118
0.393677
0.391846
0.388794
0.385742
0.384216
0.381775
0.379944
0.378113
0.375366
0.373535
0.371704
0.369263
0.366516
0.365295
0.36377
0.361328
0.359192
0.357056
0.355225
0.353394
0.351562
0.349731
0.348206
0.345154
0.344543
0.343018
0.340576
0.338135
0.336914
0.335693
0.333252
0.331116
0.330505
0.328064
0.327454
0.325623
0.324402
0.322266
0.32135
0.320435
0.319519
0.316772
0.316162
0.314941
0.31311
0.312195
0.310974
0.309143
0.308228
0.306702
0.305786
0.304565
0.303955
0.302429
0.300903
0.301208
0.299072
0.298157
0.297241
0.296021
0.29541
0.294495
0.293579
0.292053
0.291443
0.290222
0.289307
0.288696
0.287476
0.286255
0.285645
0.285034
0.284119
0.282898
0.282288
0.281677
0.281067
0.280457
0.278931
0.279236
0.27832
0.276794
0.276489
0.275574
0.274963
0.274048
0.273743
0.272217
0.271301
0.270996
0.270081
0.26947
0.268555
0.268555
0.26825
0.266418
0.266724
0.266113
0.265198
0.264893
0.263977
0.263672
0.262146
0.262146
0.261841
0.26123
0.26001
0.259094
0.259094
0.259094
0.257568
0.257263
0.256958
0.256653
0.256042
0.256042
0.255432
0.255127
0.254822
0.253906
0.253906
0.253601
0.252991
0.252686
0.25238
0.25177
0.251465
0.25116
0.251465
0.250244
0.249634
0.250244
0.250549
0.249939
0.250244
0.249329
0.248718
0.248718
0.248413
0.248413
0.248108
0.248718
0.248413
0.247803
0.248413
0.247192
0.247192
0.247498
0.246582
0.246887
0.246887
0.246887
0.247498
0.246582
0.246887
0.246582
0.246887
0.246582
0.247192
0.247192
0.247498
0.247192
0.248108
0.247803
0.248413
0.248413
0.248718
0.248413
0.249329
0.249939
0.249634
0.249939
0.250244
0.250549
0.250244
0.250549
0.250854
0.250854
0.252991
0.251465
0.252686
0.253296
0.254517
0.254517
0.255432
0.255737
0.256348
0.256958
0.256958
0.257263
0.258179
0.257874
0.259399
0.260315
0.26062
0.26062
0.261841
0.262756
0.262451
0.263062
0.264587
0.265503
0.265503
0.266113
0.266113
0.267334
0.267944
0.268555
0.268555
0.269775
0.269775
0.270996
0.271606
0.272827
0.273743
0.274353
0.276184
0.277405
0.278015
0.280151
0.281677
0.282593
0.284424
0.285339
0.288086
0.289917
0.291748
0.293884
0.296631
0.298767
0.301819
0.305176
0.308228
0.310974
0.314941
0.318604
0.322876
0.327148
0.331116
0.336609
0.340881
0.34729
0.352173
0.357971
0.363464
0.369873
0.375977
0.382996
0.39093
0.397339
0.404663
0.413208
0.421448
0.429688
0.438538
0.446777
0.456238
0.466309
0.475769
0.48584
0.495911
0.505981
0.516968
0.527954
0.538025
0.549622
0.561829
0.573425
0.583801
0.596008
0.6073
0.619812
0.632629
0.644531
0.656128
0.66864
0.680542
0.693359
0.705872
0.717773
0.730286
0.742188
0.754395
0.766602
0.778198
0.78949
0.801697
0.812683
0.82428
0.834961
0.846863
0.857239
0.86792
0.878906
0.889282
0.899048
0.909119
0.918884
0.92865
0.937805
0.94696
0.9552
0.96344
0.97229
0.980835
0.986938
0.994568
1.0022
1.00861
1.01562
1.02142
1.02814
1.03424
1.03882
1.04401
1.0495
1.05377
1.05743
1.0614
1.06537
1.06812
1.07208
1.07422
1.07697
1.07819
1.08002
1.08215
1.08337
1.08459
1.08551
1.08551
1.08551
1.08582
1.08551
1.08551
1.08521
1.08368
1.08307
1.08154
1.08032
1.07849
1.07635
1.07422
1.07147
1.06995
1.06689
1.06445
1.06049
1.05835
1.05499
1.05133
1.04706
1.04401
1.04095
1.03729
1.03302
1.02875
1.02539
1.02112
1.01685
1.01288
1.00891
1.00311
0.99884
0.993958
0.990295
0.985107
0.979919
0.976562
0.971069
0.967102
0.961609
0.956421
0.952454
0.948486
0.943604
0.93811
0.933838
0.929565
0.925598
0.920105
0.915222
0.91156
0.906372
0.9021
0.897827
0.893555
0.888672
0.884399
0.879822
0.875549
0.871277
0.866699
0.863037
0.85907
0.855103
0.851135
0.846252
0.842896
0.839233
0.834961
0.830994
0.827637
0.823059
0.819702
0.81543
0.811462
0.8078
0.803528
0.800171
0.795898
0.791931
0.787964
0.784302
0.779724
0.776367
0.7724
0.768127
0.763855
0.760498
0.75592
0.751648
0.747681
0.743408
0.739441
0.734558
0.730591
0.726013
0.722656
0.717163
0.713501
0.708923
0.704346
0.699463
0.695496
0.690613
0.686646
0.681458
0.67688
0.671387
0.66803
0.663147
0.658264
0.653687
0.649109
0.644836
0.639648
0.63385
0.630493
0.62561
0.620728
0.61676
0.611572
0.606995
0.603027
0.598145
0.593872
0.5896
0.586243
0.58197
0.577698
0.57312
0.569763
0.565796
0.561829
0.558472
0.55481
0.551147
0.548096
0.544739
0.541077
0.538025
0.534668
0.532227
0.52948
0.526428
0.523376
0.520935
0.518799
0.516357
0.513916
0.510864
0.509644
0.507202
0.505676
0.502625
0.501099
0.499878
0.498352
0.497742
0.495605
0.495605
0.493774
0.492554
0.491638
0.491943
0.491028
0.489807
0.489502
0.489807
0.489197
0.488892
0.488892
0.488892
0.489197
0.489197
0.489197
0.489502
0.490417
0.490723
0.490723
0.491943
0.492249
0.493774
0.49408
0.49469
0.496521
0.496216
0.498047
0.498352
0.499268
0.500488
0.502014
0.502625
0.503845
0.504456
0.505371
0.506287
0.506897
0.508728
0.509949
0.510864
0.512085
0.513306
0.513916
0.515137
0.515747
0.517273
0.518188
0.518799
0.52002
0.52063
0.52063
0.522461
0.523071
0.523682
0.523987
0.524597
0.524597
0.525513
0.526428
0.526428
0.527344
0.527649
0.527954
0.528259
0.527954
0.52887
0.528259
0.528564
0.527954
0.527954
0.527649
0.528259
0.527039
0.525818
0.526428
0.526123
0.525513
0.525208
0.524597
0.523376
0.522766
0.522156
0.520935
0.52002
0.519104
0.518494
0.517578
0.516663
0.515137
0.514221
0.513
0.511169
0.509949
0.507812
0.506287
0.504761
0.50415
0.502014
0.499878
0.498962
0.496521
0.495911
0.493469
0.491638
0.489197
0.487671
0.485229
0.484314
0.481567
0.479736
0.478516
0.475769
0.474243
0.471191
0.46936
0.467224
0.465698
0.463257
0.461121
0.459595
0.457458
0.455627
0.452881
0.45105
0.449219
0.446777
0.444641
0.44281
0.440674
0.437927
0.436401
0.43396
0.431213
0.429382
0.427246
0.424805
0.422668
0.420837
0.418396
0.415955
0.414429
0.411682
0.409241
0.407104
0.405579
0.403748
0.401917
0.400391
0.397339
0.394287
0.393677
0.391846
0.389709
0.387573
0.385742
0.383911
0.382385
0.379639
0.378113
0.376587
0.374146
0.372925
0.370483
0.368652
0.367737
0.366211
0.364075
0.362854
0.361023
0.359802
0.358582
0.35675
0.354919
0.353699
0.352173
0.350647
0.348816
0.347595
0.346985
0.344849
0.343323
0.342407
0.342407
0.341187
0.339661
0.33844
0.337219
0.336914
0.335083
0.333557
0.333252
0.331726
0.331116
0.32959
0.328064
0.327148
0.326233
0.325317
0.324707
0.323486
0.322876
0.321655
0.32074
0.319824
0.319214
0.318604
0.317688
0.316772
0.316162
0.315857
0.313721
0.313721
0.31311
0.312195
0.310974
0.310669
0.309753
0.309143
0.309143
0.307922
0.307617
0.306396
0.305786
0.305176
0.304871
0.303955
0.303345
0.30304
0.302429
0.301819
0.300903
0.300598
0.299377
0.299683
0.299377
0.298157
0.298157
0.297852
0.296631
0.296326
0.295715
0.295105
0.295105
0.293884
0.294495
0.293884
0.292969
0.292664
0.292358
0.291443
0.291748
0.291443
0.290222
0.289917
0.289001
0.288086
0.288696
0.288086
0.287476
0.286255
0.28717
0.286865
0.28595
0.285645
0.285645
0.284119
0.284424
0.283813
0.282898
0.282288
0.282593
0.282593
0.281372
0.280457
0.281372
0.280151
0.281067
0.280457
0.280151
0.279846
0.279541
0.279541
0.279236
0.278625
0.27832
0.278625
0.278931
0.277405
0.27832
0.27771
0.277405
0.278015
0.277405
0.277405
0.277405
0.276794
0.27771
0.277405
0.278625
0.278015
0.27771
0.27832
0.278015
0.278625
0.278015
0.278625
0.279236
0.278931
0.279236
0.279541
0.279541
0.279846
0.279846
0.279846
0.280151
0.280457
0.280762
0.280762
0.281372
0.281982
0.281677
0.282593
0.283508
0.284119
0.285034
0.284424
0.285645
0.286865
0.28656
0.288391
0.288696
0.289001
0.289917
0.291443
0.291748
0.292358
0.293579
0.293884
0.295715
0.296631
0.298157
0.299377
0.301208
0.302429
0.30426
0.306091
0.308228
0.310059
0.311584
0.314941
0.316162
0.319214
0.32196
0.325012
0.328064
0.331116
0.335388
0.338745
0.343018
0.34668
0.350952
0.35675
0.361633
0.366516
0.372314
0.377808
0.383606
0.391235
0.397034
0.403442
0.411072
0.418396
0.426331
0.43335
0.442505
0.450439
0.458679
0.46814
0.477295
0.486145
0.496216
0.506287
0.516357
0.526428
0.536804
0.547791
0.558777
0.569763
0.581055
0.592346
0.603943
0.616455
0.627747
0.639648
0.651855
0.664062
0.676575
0.689087
0.701294
0.712585
0.726318
0.738831
0.750122
0.76355
0.776367
0.788574
0.800171
0.812683
0.824585
0.836182
0.849609
0.860291
0.872498
0.883789
0.895081
0.906677
0.916748
0.92804
0.9375
0.948181
0.958557
0.968933
0.977173
0.987244
0.996399
1.00525
1.01379
1.02295
1.02997
1.0376
1.04523
1.05164
1.05835
1.06598
1.07117
1.07758
1.08307
1.08704
1.09222
1.09711
1.10107
1.10443
1.10809
1.11145
1.11389
1.11725
1.11908
1.12061
1.12274
1.12427
1.12457
1.12549
1.1261
1.1261
1.1261
1.12579
1.1261
1.12427
1.12335
1.12183
1.1203
1.11877
1.11694
1.1142
1.11206
1.10931
1.10596
1.1026
1.10077
1.09772
1.09344
1.09009
1.08551
1.08185
1.07727
1.0733
1.06873
1.06415
1.05957
1.0553
1.0498
1.04553
1.04095
1.03577
1.03058
1.026
1.02051
1.01624
1.01013
1.00555
0.999756
0.994263
0.98877
0.983887
0.978394
0.9729
0.968018
0.96283
0.957336
0.952148
0.94635
0.942078
0.93689
0.932007
0.927124
0.922241
0.917664
0.912476
0.907288
0.902405
0.898438
0.89325
0.888672
0.883484
0.879211
0.874939
0.869751
0.865479
0.861511
0.857239
0.852051
0.848083
0.843506
0.838623
0.834656
0.830994
0.827332
0.822754
0.818481
0.814209
0.810852
0.806274
0.801697
0.798035
0.793762
0.789185
0.785522
0.78186
0.777893
0.773621
0.769958
0.76416
0.761108
0.757446
0.752869
0.749207
0.744629
0.740051
0.735779
0.732727
0.728149
0.723572
0.718994
0.714722
0.710754
0.706177
0.701904
0.696716
0.692749
0.688477
0.684509
0.679626
0.675049
0.670776
0.666809
0.661621
0.657654
0.652161
0.648193
0.643005
0.639038
0.634155
0.628662
0.62439
0.620117
0.615845
0.610657
0.606384
0.602417
0.597534
0.593262
0.588989
0.584412
0.580444
0.576477
0.572205
0.567322
0.564575
0.559998
0.55603
0.552063
0.548706
0.544739
0.541992
0.537415
0.534668
0.531311
0.527344
0.525208
0.521545
0.518799
0.516968
0.514832
0.512695
0.510254
0.508423
0.504761
0.503845
0.501404
0.500488
0.497742
0.497131
0.4953
0.493774
0.491943
0.491028
0.489807
0.488586
0.488892
0.487366
0.48645
0.48584
0.48645
0.484619
0.484924
0.484619
0.484314
0.484619
0.484924
0.484314
0.484924
0.484619
0.48584
0.48584
0.484924
0.48645
0.487671
0.488281
0.488281
0.488892
0.489197
0.490112
0.490723
0.491943
0.492249
0.492554
0.494385
0.495605
0.496216
0.496521
0.498657
0.498962
0.499573
0.500488
0.501404
0.502319
0.503845
0.505066
0.505066
0.505981
0.507812
0.508423
0.509338
0.511169
0.511475
0.512085
0.513306
0.513611
0.514526
0.515442
0.515747
0.516052
0.516663
0.517578
0.518494
0.517883
0.517883
0.519409
0.519104
0.519104
0.519409
0.519714
0.519714
0.519714
0.519409
0.519409
0.519104
0.518799
0.518188
0.518188
0.518188
0.516968
0.516052
0.515137
0.514526
0.514526
0.513306
0.51239
0.511169
0.511475
0.508728
0.508118
0.506592
0.505066
0.504456
0.50354
0.502625
0.500793
0.498962
0.497437
0.496826
0.49469
0.493164
0.490723
0.489807
0.488281
0.485535
0.484314
0.482483
0.480042
0.479126
0.476685
0.475159
0.473328
0.470886
0.469055
0.466919
0.465393
0.463562
0.461731
0.4599
0.457458
0.455322
0.452881
0.45105
0.449219
0.447083
0.444336
0.4422
0.439758
0.437927
0.436401
0.433655
0.431519
0.428467
0.426941
0.425415
0.422974
0.420532
0.418396
0.415955
0.413513
0.411987
0.40802
0.406189
0.403442
0.401611
0.39978
0.397644
0.395813
0.393372
0.391235
0.388794
0.386658
0.384216
0.38208
0.379944
0.377808
0.376282
0.37384
0.372009
0.370178
0.367432
0.366211
0.364075
0.361938
0.359497
0.35675
0.355835
0.354004
0.351868
0.350037
0.3479
0.346069
0.344543
0.342712
0.341187
0.339661
0.33783
0.335083
0.334778
0.332642
0.329895
0.328979
0.327148
0.325623
0.324097
0.32196
0.321655
0.319519
0.318298
0.317383
0.314636
0.313416
0.31311
0.311279
0.310059
0.308533
0.307007
0.305481
0.304565
0.303345
0.302124
0.300903
0.299988
0.299072
0.297852
0.296326
0.29541
0.293579
0.293579
0.292053
0.290833
0.289917
0.288696
0.287781
0.28656
0.28595
0.284729
0.283813
0.283203
0.281372
0.281067
0.279846
0.278931
0.27771
0.2771
0.276184
0.274963
0.274353
0.272827
0.271912
0.271912
0.270996
0.270386
0.26886
0.268555
0.267029
0.267334
0.266724
0.265808
0.265198
0.264893
0.263977
0.263672
0.263062
0.262756
0.261841
0.26123
0.26123
0.26062
0.26001
0.259399
0.258789
0.258484
0.258484
0.258484
0.257568
0.257568
0.256653
0.257263
0.256348
0.256042
0.254517
0.255737
0.254822
0.254211
0.253906
0.253601
0.253601
0.252686
0.252686
0.252686
0.252075
0.251465
0.250854
0.250854
0.25116
0.250549
0.249939
0.249634
0.249329
0.249634
0.249023
0.249023
0.248718
0.247803
0.247498
0.247498
0.249023
0.248108
0.248108
0.247498
0.247498
0.247803
0.247192
0.247498
0.247803
0.248108
0.248413
0.248718
0.248108
0.248108
0.248718
0.248413
0.248718
0.249329
0.249634
0.250549
0.250549
0.250244
0.250549
0.252075
0.251465
0.25238
0.252686
0.253906
0.254517
0.255432
0.255432
0.256348
0.256348
0.257874
0.257568
0.258789
0.258789
0.26001
0.26123
0.262146
0.263062
0.263672
0.264587
0.266418
0.267334
0.269165
0.270386
0.272217
0.273743
0.275574
0.2771
0.279236
0.281982
0.283508
0.284729
0.287476
0.290222
0.292358
0.296021
0.298462
0.301819
0.305481
0.309448
0.313416
0.316772
0.321655
0.326843
0.331421
0.336609
0.342407
0.348206
0.353699
0.359192
0.366516
0.372925
0.380859
0.387573
0.395813
0.402832
0.411072
0.419617
0.428162
0.437012
0.446472
0.455933
0.465088
0.475159
0.485535
0.496216
0.506592
0.517883
0.528564
0.539856
0.551147
0.563049
0.574646
0.585938
0.59845
0.610657
0.623169
0.635986
0.647888
0.6604
0.673523
0.686035
0.699158
0.71167
0.724182
0.737305
0.749512
0.762939
0.774536
0.787048
0.798645
0.812073
0.82428
0.836182
0.847473
0.859375
0.871277
0.881653
0.89325
0.905151
0.915222
0.925598
0.936279
0.946045
0.956116
0.965576
0.975342
0.983887
0.993042
1.00128
1.00952
1.01715
1.02509
1.03241
1.03821
1.04553
1.05225
1.05774
1.06384
1.06964
1.07422
1.07849
1.08398
1.08704
1.09009
1.09467
1.0965
1.10016
1.10199
1.10443
1.10535
1.10748
1.10901
1.10992
1.10962
1.11084
1.11053
1.10962
1.1087
1.10779
1.10748
1.10565
1.10535
1.10291
1.10168
1.09894
1.09711
1.09436
1.09222
1.08856
1.08521
1.08215
1.07849
1.07544
1.07117
1.0672
1.06354
1.05957
1.0553
1.05103
1.04614
1.04218
1.03668
1.03241
1.02783
1.02295
1.01837
1.01349
1.00769
1.0025
0.997925
0.992432
0.987854
0.982361
0.977478
0.97168
0.967102
0.961304
0.956421
0.950317
0.945435
0.940857
0.935059
0.930176
0.924988
0.92041
0.914917
0.909729
0.904846
0.899658
0.894165
0.889587
0.884705
0.879211
0.874939
0.870361
0.864868
0.860596
0.855408
0.85083
0.847168
0.84198
0.838013
0.83313
0.830078
0.825195
0.820923
0.81604
0.812378
0.806885
0.803528
0.799561
0.795898
0.790405
0.786743
0.783081
0.778198
0.774841
0.770874
0.765686
0.763245
0.758362
0.753784
0.749817
0.74646
0.742493
0.73822
0.734558
0.730286
0.725708
0.72113
0.717163
0.711975
0.707397
0.704041
0.698853
0.694275
0.690918
0.686646
0.681763
0.67749
0.673218
0.66864
0.664062
0.65918
0.654602
0.65033
0.645447
0.641174
0.635681
0.631409
0.62561
0.621338
0.61676
0.612488
0.606995
0.601807
0.596619
0.591736
0.587463
0.582581
0.578003
0.572205
0.567932
0.563049
0.558472
0.554199
0.549927
0.545044
0.540161
0.535889
0.532227
0.527039
0.523376
0.518799
0.515137
0.510864
0.506897
0.50354
0.499573
0.495605
0.492554
0.489502
0.485229
0.481873
0.479126
0.476379
0.473328
0.470581
0.467529
0.465088
0.463257
0.46051
0.458374
0.455322
0.453796
0.451965
0.449829
0.447998
0.446167
0.445251
0.444031
0.441895
0.440979
0.440063
0.438843
0.437622
0.437317
0.437012
0.436096
0.435486
0.435181
0.434265
0.433655
0.43396
0.433655
0.43396
0.433044
0.43335
0.433655
0.43396
0.43396
0.435486
0.434875
0.435486
0.436401
0.436401
0.437012
0.437622
0.438843
0.439453
0.440674
0.441284
0.441589
0.442505
0.443115
0.444031
0.445557
0.445557
0.446777
0.447693
0.449524
0.448914
0.449829
0.451355
0.452576
0.452881
0.454102
0.454407
0.455627
0.456238
0.456848
0.457153
0.458069
0.458984
0.4599
0.4599
0.460815
0.460815
0.461121
0.461731
0.461426
0.462646
0.462036
0.463257
0.463257
0.463867
0.462646
0.462952
0.463867
0.462952
0.462341
0.462036
0.461731
0.462036
0.461426
0.461121
0.461121
0.460815
0.459595
0.45929
0.458679
0.458069
0.457458
0.456848
0.455933
0.454102
0.453186
0.452576
0.45105
0.450134
0.450134
0.449524
0.447388
0.445862
0.444031
0.44281
0.440979
0.440674
0.438232
0.437012
0.435791
0.433655
0.432129
0.429993
0.428467
0.426025
0.424805
0.423584
0.421753
0.419312
0.41748
0.415039
0.413513
0.411682
0.409241
0.407104
0.404663
0.402832
0.401306
0.398865
0.397339
0.394287
0.393066
0.39093
0.388184
0.386353
0.384827
0.381775
0.379639
0.378113
0.375061
0.37323
0.370789
0.368347
0.366821
0.363464
0.362244
0.359192
0.357666
0.35553
0.353394
0.350342
0.348816
0.346985
0.344849
0.342102
0.340271
0.338135
0.335388
0.334167
0.331116
0.328674
0.327759
0.324707
0.32196
0.319824
0.317688
0.316162
0.313721
0.31189
0.309753
0.308228
0.305481
0.303345
0.301819
0.299988
0.297852
0.29541
0.293884
0.292358
0.290222
0.288696
0.286865
0.284729
0.283203
0.281372
0.279236
0.278625
0.2771
0.275879
0.274658
0.271912
0.271301
0.270691
0.267944
0.266724
0.265808
0.264587
0.263062
0.261536
0.26123
0.26062
0.258179
0.257568
0.256958
0.256348
0.256042
0.253906
0.254211
0.252991
0.25177
0.25177
0.25116
0.249329
0.249329
0.248718
0.247498
0.246582
0.246277
0.244751
0.245361
0.243835
0.244446
0.242615
0.242004
0.241699
0.242004
0.240784
0.239868
0.239258
0.238647
0.239258
0.238342
0.237122
0.237122
0.237732
0.236816
0.235901
0.235291
0.234375
0.234375
0.233154
0.233765
0.233154
0.232849
0.231934
0.231628
0.231018
0.231018
0.230408
0.229797
0.229492
0.228882
0.228577
0.228271
0.227356
0.227356
0.22644
0.226746
0.22644
0.22583
0.226135
0.22522
0.22522
0.224609
0.223694
0.224304
0.223694
0.223389
0.223083
0.223694
0.222473
0.222473
0.222168
0.222473
0.221863
0.222168
0.220947
0.220947
0.220947
0.221252
0.220032
0.220032
0.220032
0.220032
0.218811
0.217896
0.218811
0.218811
0.218201
0.21759
0.217285
0.218506
0.217896
0.218201
0.21759
0.217285
0.21759
0.217896
0.217896
0.217896
0.217896
0.217285
0.21759
0.218201
0.218506
0.219116
0.218506
0.220032
0.219727
0.220642
0.220947
0.220947
0.221558
0.222168
0.222778
0.222778
0.223389
0.224609
0.224915
0.22583
0.22644
0.227356
0.227661
0.228577
0.229797
0.230713
0.231323
0.232849
0.233765
0.234985
0.236206
0.236511
0.238342
0.240173
0.240784
0.242004
0.243225
0.245361
0.245361
0.247498
0.249023
0.250854
0.252075
0.254211
0.256042
0.257874
0.260315
0.262756
0.264282
0.266724
0.269775
0.272217
0.276184
0.27832
0.280762
0.284424
0.28717
0.290527
0.29541
0.298462
0.302429
0.307007
0.31189
0.316162
0.322266
0.327148
0.332642
0.339355
0.344849
0.351562
0.358276
0.365295
0.373535
0.380554
0.388489
0.397034
0.405273
0.413818
0.422363
0.431824
0.441284
0.45105
0.461731
0.471802
0.481567
0.492249
0.50354
0.514832
0.525818
0.53772
0.550232
0.562439
0.574341
0.587158
0.599365
0.612183
0.625
0.637512
0.650635
0.663452
0.677185
0.690002
0.70343
0.715637
0.729675
0.743408
0.756226
0.770264
0.782471
0.796814
0.809326
0.823059
0.836182
0.848999
0.862122
0.874023
0.886841
0.899048
0.91156
0.922241
0.935059
0.94574
0.957642
0.968323
0.978699
0.989685
1.00006
1.00952
1.0199
1.02875
1.03851
1.04675
1.0553
1.06354
1.07117
1.07819
1.08521
1.09192
1.09833
1.10382
1.11023
1.11481
1.1203
1.12518
1.12976
1.13312
1.13647
1.14014
1.14288
1.14563
1.14777
1.15021
1.15234
1.15204
1.15417
1.15448
1.15479
1.15448
1.15509
1.15417
1.15387
1.15204
1.15082
1.1496
1.14807
1.14624
1.1441
1.14105
1.13831
1.13586
1.13251
1.12946
1.12518
1.12274
1.11877
1.11481
1.11053
1.10626
1.10229
1.09741
1.09344
1.08795
1.08307
1.07941
1.07361
1.06873
1.06354
1.05804
1.05286
1.04797
1.0434
1.0376
1.03271
1.02722
1.02234
1.01624
1.01074
1.00555
1.00067
0.994568
0.98999
0.984497
0.979004
0.974426
0.968323
0.96344
0.957947
0.952759
0.947571
0.942383
0.937805
0.932312
0.92804
0.922852
0.918274
0.913086
0.908508
0.903931
0.898438
0.89386
0.889282
0.884094
0.879822
0.874939
0.870667
0.867004
0.862122
0.857849
0.853882
0.849609
0.844727
0.840149
0.837097
0.831604
0.827637
0.823669
0.820007
0.81604
0.812073
0.80719
0.804138
0.799866
0.795898
0.791931
0.787048
0.783386
0.780029
0.776062
0.7724
0.767822
0.76355
0.759583
0.755615
0.751038
0.747375
0.743713
0.739441
0.733643
0.72998
0.725708
0.72113
0.716858
0.71228
0.708008
0.70343
0.698242
0.694275
0.689392
0.684814
0.680237
0.675354
0.670776
0.666809
0.661926
0.657043
0.652161
0.647583
0.643311
0.637512
0.632935
0.628662
0.623779
0.618896
0.614624
0.609741
0.605469
0.600891
0.595703
0.591736
0.586853
0.582886
0.578003
0.57312
0.568848
0.565186
0.560913
0.55603
0.551758
0.548096
0.544434
0.540466
0.537415
0.532227
0.52948
0.526123
0.522156
0.519409
0.516663
0.513611
0.510864
0.507507
0.505371
0.502319
0.499268
0.497742
0.494995
0.492554
0.491028
0.488586
0.487061
0.484314
0.483093
0.482178
0.480347
0.478516
0.477295
0.476074
0.474854
0.473633
0.472412
0.471802
0.471497
0.469666
0.469666
0.46936
0.46875
0.468445
0.467224
0.467834
0.467529
0.466614
0.466309
0.466919
0.466614
0.467224
0.466919
0.467529
0.467834
0.467224
0.46814
0.46814
0.46875
0.46936
0.469666
0.469971
0.470276
0.470886
0.471802
0.472412
0.472717
0.473022
0.473938
0.474548
0.474548
0.475159
0.476074
0.476379
0.4776
0.477905
0.478516
0.479126
0.478821
0.479431
0.480347
0.480652
0.481262
0.482178
0.482178
0.482178
0.483398
0.483093
0.483398
0.484314
0.483704
0.484009
0.483093
0.484009
0.484314
0.483704
0.484009
0.483398
0.483398
0.483093
0.482178
0.481873
0.482483
0.481567
0.481262
0.480347
0.480042
0.47821
0.47821
0.477295
0.47699
0.475769
0.475464
0.473328
0.472412
0.471802
0.470581
0.469971
0.468445
0.466919
0.466919
0.465393
0.463562
0.462341
0.461426
0.460815
0.458069
0.456848
0.455017
0.453796
0.452271
0.450745
0.449524
0.447083
0.444946
0.44342
0.441895
0.440063
0.437622
0.436707
0.43396
0.431824
0.429993
0.427551
0.425415
0.423584
0.420837
0.419006
0.416565
0.413818
0.411987
0.409546
0.407104
0.404663
0.401917
0.400085
0.397644
0.394592
0.391846
0.389099
0.387268
0.385742
0.38208
0.379028
0.376892
0.374146
0.372009
0.369263
0.366821
0.36438
0.362244
0.359192
0.357056
0.354614
0.352173
0.350647
0.348206
0.345764
0.343628
0.341797
0.33905
0.336609
0.334778
0.332031
0.3302
0.327759
0.325623
0.323181
0.32074
0.318604
0.316467
0.314941
0.312195
0.310974
0.308533
0.306396
0.304871
0.302734
0.301208
0.298767
0.297241
0.295715
0.292969
0.292053
0.290222
0.288391
0.286865
0.285645
0.283203
0.281677
0.279846
0.278625
0.2771
0.275879
0.274353
0.272827
0.271301
0.269775
0.26825
0.267944
0.266418
0.264587
0.264587
0.262451
0.261536
0.260925
0.258789
0.258179
0.257263
0.256653
0.255432
0.254211
0.253906
0.252686
0.251465
0.25116
0.249634
0.248718
0.247803
0.246887
0.245667
0.246582
0.245361
0.244446
0.24231
0.24292
0.241089
0.241089
0.239868
0.239258
0.237732
0.238037
0.236816
0.236206
0.235596
0.234985
0.23407
0.23407
0.233154
0.232239
0.232239
0.231628
0.231018
0.229797
0.230103
0.229492
0.228882
0.228271
0.227356
0.226746
0.227051
0.226746
0.225525
0.224915
0.22522
0.224609
0.223694
0.223694
0.223389
0.223083
0.223389
0.222473
0.223389
0.221863
0.221558
0.221252
0.220642
0.220337
0.220642
0.220642
0.219727
0.219116
0.219421
0.218811
0.219727
0.219727
0.219421
0.219116
0.219421
0.219116
0.219116
0.218811
0.218811
0.218201
0.218506
0.21759
0.218201
0.21759
0.217285
0.21759
0.21759
0.217896
0.217285
0.21759
0.218201
0.21759
0.217285
0.218201
0.218201
0.218506
0.218506
0.21759
0.217896
0.21759
0.219116
0.219421
0.219116
0.219421
0.219421
0.219727
0.220032
0.219727
0.220032
0.220032
0.220642
0.220947
0.221252
0.221863
0.221558
0.222168
0.222473
0.223389
0.223694
0.224304
0.224609
0.22522
0.225525
0.22583
0.227051
0.227966
0.228882
0.229187
0.229797
0.230408
0.231628
0.232544
0.233459
0.234375
0.235596
0.236511
0.237122
0.238037
0.239868
0.240173
0.241089
0.24231
0.24292
0.244141
0.245667
0.247498
0.248413
0.249329
0.25177
0.252686
0.254822
0.256348
0.258789
0.260315
0.262756
0.265198
0.267944
0.269775
0.272522
0.275269
0.278625
0.281372
0.284729
0.289001
0.292358
0.296631
0.300903
0.305481
0.309753
0.313721
0.319519
0.325012
0.331116
0.335999
0.342407
0.349426
0.356445
0.364075
0.371094
0.378113
0.386658
0.394592
0.402527
0.412292
0.421143
0.431519
0.440674
0.449829
0.461121
0.471497
0.482788
0.49408
0.505066
0.516968
0.529175
0.540466
0.552673
0.565491
0.578003
0.590515
0.603027
0.616455
0.628662
0.6427
0.656128
0.668945
0.682373
0.695496
0.709534
0.723267
0.736389
0.750122
0.76416
0.777588
0.791321
0.804443
0.817261
0.830994
0.843811
0.857239
0.870056
0.882263
0.895081
0.906982
0.919495
0.930481
0.942993
0.953979
0.964966
0.976257
0.986938
0.99762
1.00769
1.01776
1.02753
1.03638
1.04614
1.0553
1.06354
1.07147
1.08032
1.08643
1.09314
1.09985
1.10626
1.11267
1.11786
1.12366
1.12823
1.13312
1.13708
1.14075
1.14441
1.14777
1.15051
1.15356
1.15509
1.15662
1.15936
1.15997
1.16058
1.1618
1.1618
1.1618
1.1615
1.16089
1.15936
1.15967
1.15692
1.15601
1.15417
1.15204
1.1496
1.14563
1.1441
1.14105
1.138
1.13525
1.13159
1.12823
1.12396
1.11969
1.11511
1.10992
1.10565
1.10107
1.0965
1.09222
1.08612
1.08124
1.07666
1.07178
1.06628
1.0611
1.05591
1.05011
1.04523
1.03912
1.03333
1.02783
1.02295
1.01715
1.01105
1.00525
0.999756
0.993958
0.987854
0.982666
0.976868
0.971375
0.966187
0.960388
0.953979
0.949402
0.944214
0.938416
0.933838
0.92865
0.923462
0.918274
0.913391
0.907593
0.903625
0.898438
0.892334
0.887756
0.883179
0.877991
0.873718
0.869141
0.864868
0.860901
0.855408
0.85144
0.847473
0.84259
0.838623
0.834351
0.830688
0.825806
0.822144
0.818176
0.814514
0.809326
0.805054
0.802002
0.797729
0.794067
0.789795
0.786133
0.782776
0.778503
0.774231
0.771179
0.766602
0.762939
0.758362
0.755005
0.750732
0.74585
0.742798
0.739441
0.734558
0.730286
0.726318
0.722046
0.718079
0.713196
0.709229
0.704651
0.700378
0.697021
0.692139
0.687866
0.683289
0.679016
0.674744
0.670776
0.665894
0.661926
0.657043
0.652466
0.648193
0.643005
0.639038
0.634766
0.629883
0.625305
0.621033
0.616455
0.611572
0.60791
0.603638
0.59906
0.595398
0.590515
0.586243
0.581665
0.577698
0.57312
0.569763
0.565491
0.561523
0.557556
0.553894
0.550232
0.545654
0.542603
0.539856
0.535889
0.533447
0.529785
0.526428
0.523987
0.520325
0.517273
0.515137
0.512695
0.511169
0.508423
0.505676
0.50354
0.500793
0.498962
0.497131
0.495911
0.494385
0.491943
0.491333
0.489502
0.488586
0.487061
0.486145
0.485229
0.484314
0.483398
0.483093
0.483093
0.481873
0.481262
0.480652
0.481567
0.480347
0.479431
0.480347
0.480042
0.480957
0.480652
0.481262
0.481262
0.480957
0.481567
0.481567
0.482483
0.483398
0.484619
0.484314
0.484924
0.486145
0.486145
0.487366
0.488586
0.488586
0.489807
0.490112
0.491028
0.491638
0.492249
0.493469
0.49408
0.49469
0.495605
0.496216
0.497131
0.497437
0.498047
0.498962
0.498962
0.500488
0.499878
0.500488
0.501404
0.501709
0.502014
0.502319
0.502014
0.502625
0.50293
0.50354
0.50354
0.503845
0.503845
0.503845
0.504761
0.503845
0.504456
0.50415
0.504456
0.503845
0.50415
0.503845
0.503845
0.50293
0.502625
0.502319
0.502014
0.500183
0.499573
0.499878
0.497742
0.497437
0.496521
0.4953
0.49469
0.49408
0.493164
0.491028
0.490723
0.488586
0.487671
0.48645
0.485229
0.484314
0.483093
0.480957
0.479126
0.477905
0.475464
0.473633
0.472107
0.46936
0.469055
0.465698
0.464172
0.462341
0.4599
0.458069
0.457153
0.454712
0.452881
0.450439
0.447998
0.445862
0.444031
0.441589
0.439758
0.437012
0.43457
0.433044
0.430298
0.428162
0.426636
0.423889
0.421448
0.418396
0.41748
0.414429
0.411682
0.410156
0.40741
0.404053
0.401917
0.400085
0.397949
0.394897
0.391846
0.390625
0.387573
0.385132
0.38269
0.380554
0.378418
0.375366
0.37323
0.371094
0.367737
0.366516
0.36438
0.361023
0.358887
0.357361
0.354614
0.351868
0.349426
0.346985
0.345154
0.343323
0.340576
0.338745
0.336609
0.334167
0.332642
0.330811
0.328979
0.326233
0.325623
0.324097
0.322266
0.32074
0.318604
0.317688
0.315247
0.314026
0.31189
0.310059
0.308838
0.307617
0.305786
0.303955
0.303345
0.301208
0.299377
0.298462
0.297241
0.296326
0.2948
0.292969
0.292358
0.290833
0.289917
0.288086
0.287476
0.286255
0.285339
0.283508
0.282593
0.281982
0.280762
0.279236
0.27832
0.278015
0.277405
0.276489
0.275269
0.275269
0.274048
0.273438
0.272522
0.272217
0.270996
0.269775
0.270081
0.26886
0.267944
0.267029
0.266418
0.265808
0.265503
0.264587
0.263672
0.262756
0.262451
0.261536
0.260925
0.259705
0.26001
0.259399
0.257874
0.257874
0.257568
0.256653
0.255127
0.254822
0.253906
0.253601
0.25238
0.252686
0.25177
0.251465
0.250854
0.250549
0.249939
0.248718
0.248718
0.248108
0.248413
0.247192
0.246582
0.245667
0.245972
0.245667
0.244751
0.243835
0.243835
0.24231
0.241394
0.241394
0.241089
0.241089
0.240784
0.239868
0.240173
0.239868
0.239258
0.238953
0.238342
0.238647
0.236816
0.237427
0.236816
0.236816
0.236206
0.235596
0.235596
0.235291
0.235291
0.234375
0.235596
0.23468
0.234375
0.23407
0.233765
0.233459
0.233459
0.232239
0.232849
0.232544
0.233154
0.232544
0.232239
0.232239
0.232544
0.231934
0.231934
0.231628
0.231628
0.231323
0.231323
0.232239
0.231934
0.231018
0.231934
0.232544
0.232544
0.232544
0.232849
0.233154
0.233459
0.233765
0.234375
0.234375
0.234375
0.235291
0.235901
0.235901
0.236511
0.236816
0.238647
0.238953
0.238953
0.239563
0.240784
0.241394
0.241394
0.243225
0.243225
0.244446
0.245361
0.245972
0.246887
0.248108
0.249023
0.250549
0.250854
0.252075
0.252991
0.254822
0.255432
0.256958
0.258179
0.259094
0.26062
0.262451
0.263977
0.266113
0.267944
0.268555
0.270691
0.273743
0.275574
0.276794
0.280151
0.281982
0.284424
0.288391
0.290527
0.294495
0.297852
0.300598
0.305481
0.308838
0.314026
0.317993
0.322571
0.328369
0.332947
0.338745
0.345459
0.350647
0.357056
0.363159
0.370178
0.376892
0.384827
0.392456
0.401001
0.409241
0.41748
0.426331
0.435181
0.445251
0.455017
0.465088
0.475769
0.485535
0.496826
0.507507
0.519104
0.530701
0.542603
0.554199
0.567017
0.579224
0.592041
0.603943
0.617371
0.629883
0.643005
0.656433
0.669556
0.683594
0.696716
0.710144
0.723877
0.73761
0.751953
0.765991
0.778503
0.792847
0.806274
0.820007
0.83313
0.846558
0.859985
0.872192
0.885315
0.897827
0.909424
0.922241
0.934143
0.94574
0.957642
0.969238
0.979614
0.991211
1.0025
1.01166
1.02234
1.03149
1.04095
1.0498
1.05774
1.0672
1.07483
1.08215
1.08917
1.0968
1.1026
1.10779
1.11481
1.12122
1.12549
1.13098
1.13525
1.13983
1.1438
1.14777
1.15051
1.15326
1.15601
1.15906
1.15997
1.1615
1.16302
1.16425
1.16455
1.16486
1.16455
1.16425
1.16364
1.16272
1.16211
1.15997
1.15906
1.15723
1.15509
1.15204
1.15021
1.14685
1.1438
1.14014
1.1377
1.13312
1.13007
1.1261
1.12213
1.11786
1.11328
1.1087
1.10443
1.09924
1.09375
1.08917
1.08459
1.07941
1.07391
1.06873
1.06354
1.05804
1.05316
1.04706
1.04126
1.03607
1.02936
1.02417
1.01868
1.01257
1.00677
1.00159
0.996704
0.989685
0.984192
0.979309
0.973206
0.967712
0.962524
0.956421
0.951233
0.945129
0.940247
0.934448
0.930176
0.923767
0.919189
0.913696
0.909424
0.90332
0.898438
0.893555
0.888977
0.884399
0.880127
0.874329
0.868835
0.865479
0.860596
0.856628
0.852051
0.847168
0.842285
0.838318
0.834045
0.829163
0.824585
0.820923
0.81604
0.812073
0.8078
0.803833
0.798645
0.795288
0.791321
0.787354
0.783691
0.779419
0.775146
0.770569
0.767212
0.762329
0.759277
0.7547
0.751343
0.74646
0.741882
0.73761
0.733948
0.729675
0.725708
0.720825
0.716858
0.71228
0.708923
0.703125
0.699463
0.69519
0.689697
0.68634
0.681763
0.676575
0.672302
0.66803
0.664062
0.65918
0.654907
0.650024
0.645447
0.640259
0.635681
0.631104
0.627136
0.622864
0.617676
0.613708
0.609131
0.604858
0.599976
0.596313
0.591736
0.587463
0.583191
0.579224
0.574646
0.570679
0.566101
0.562134
0.558472
0.554199
0.550232
0.54718
0.543518
0.539246
0.536499
0.533447
0.53009
0.527344
0.523987
0.52063
0.518799
0.516052
0.513611
0.510864
0.508728
0.505981
0.503845
0.502014
0.500183
0.498352
0.496521
0.4953
0.492554
0.492554
0.491028
0.489197
0.488281
0.487671
0.48645
0.485535
0.485535
0.484619
0.483398
0.483398
0.482788
0.482178
0.482178
0.482483
0.481873
0.481567
0.481873
0.481873
0.483093
0.482788
0.483398
0.483704
0.484314
0.485229
0.485535
0.485535
0.48645
0.487366
0.488586
0.488586
0.490112
0.490112
0.491333
0.491638
0.491943
0.493469
0.49408
0.493774
0.49469
0.496216
0.496826
0.497437
0.498962
0.498962
0.499878
0.500183
0.501099
0.502014
0.502625
0.50354
0.50354
0.50354
0.504761
0.504761
0.504761
0.505676
0.505981
0.506287
0.506897
0.506592
0.506897
0.507202
0.508118
0.507812
0.507202
0.507507
0.507812
0.506897
0.507812
0.506897
0.506592
0.506287
0.506592
0.505066
0.505066
0.504456
0.503845
0.50354
0.50293
0.502625
0.501099
0.501099
0.500183
0.498962
0.498352
0.497742
0.497131
0.495605
0.49469
0.493469
0.492249
0.489807
0.489807
0.488281
0.485535
0.484619
0.483704
0.481262
0.480042
0.478821
0.476074
0.474243
0.473022
0.471191
0.46936
0.467224
0.465088
0.463562
0.461426
0.458984
0.456543
0.455017
0.453186
0.450745
0.447998
0.446167
0.443726
0.441589
0.439758
0.437317
0.435181
0.433044
0.430298
0.428162
0.42572
0.423584
0.422058
0.418701
0.416565
0.413513
0.411682
0.409546
0.406799
0.404358
0.401917
0.398865
0.397034
0.394897
0.391541
0.389709
0.388184
0.386047
0.383606
0.38147
0.378723
0.376892
0.374146
0.372314
0.368958
0.367737
0.365295
0.36377
0.361023
0.358582
0.357056
0.355225
0.353394
0.350647
0.348206
0.346069
0.344849
0.342407
0.340881
0.338135
0.336914
0.334778
0.333557
0.331726
0.32959
0.328064
0.325623
0.323486
0.322876
0.320129
0.319214
0.316467
0.315247
0.312805
0.31189
0.309753
0.308838
0.306396
0.304871
0.30365
0.302429
0.301208
0.299377
0.298462
0.296021
0.295715
0.293579
0.292358
0.291138
0.289612
0.288086
0.287476
0.285339
0.283813
0.283203
0.282898
0.281677
0.280762
0.279236
0.27832
0.277405
0.276794
0.276489
0.275269
0.273743
0.272522
0.271606
0.271912
0.270081
0.270386
0.26947
0.267944
0.267639
0.266418
0.266418
0.265808
0.264893
0.263672
0.263672
0.263672
0.263062
0.262146
0.261536
0.26123
0.26062
0.259705
0.258789
0.258179
0.257568
0.257263
0.256348
0.255737
0.255432
0.255127
0.254211
0.253296
0.253906
0.25238
0.25238
0.252075
0.251465
0.250549
0.250549
0.249329
0.249329
0.248718
0.248718
0.247498
0.247192
0.247498
0.245667
0.246277
0.246277
0.244751
0.244141
0.244141
0.244446
0.243225
0.24231
0.24231
0.241699
0.240479
0.240784
0.240173
0.239563
0.238647
0.238037
0.237427
0.236511
0.236206
0.235291
0.235291
0.234985
0.233459
0.232544
0.231934
0.232239
0.231018
0.231018
0.230408
0.229492
0.228882
0.228882
0.228271
0.227661
0.226746
0.22644
0.226746
0.225525
0.22522
0.22522
0.224915
0.223694
0.223694
0.223694
0.223389
0.223083
0.222473
0.223694
0.223389
0.222778
0.223389
0.223083
0.222778
0.222778
0.223083
0.223694
0.223999
0.224304
0.224304
0.223694
0.223999
0.224609
0.224915
0.224915
0.22522
0.22583
0.225525
0.226135
0.227051
0.227356
0.227661
0.228577
0.229187
0.229187
0.230408
0.231018
0.231628
0.232544
0.232544
0.233154
0.23468
0.235291
0.236206
0.237427
0.238342
0.239563
0.240784
0.241394
0.243225
0.244751
0.246277
0.247192
0.249329
0.250854
0.253296
0.255432
0.256958
0.260315
0.262451
0.264893
0.267029
0.270691
0.272827
0.2771
0.280151
0.284119
0.288696
0.292664
0.296936
0.302124
0.307312
0.31311
0.318909
0.324707
0.330811
0.337524
0.343933
0.351868
0.358582
0.366211
0.374146
0.382385
0.39093
0.400085
0.409241
0.418396
0.427551
0.437622
0.448303
0.458374
0.469055
0.480652
0.491638
0.503235
0.514832
0.527039
0.538635
0.552063
0.56488
0.577087
0.589294
0.602417
0.61554
0.628662
0.641785
0.655518
0.66925
0.682678
0.696716
0.710144
0.724182
0.737915
0.751038
0.764465
0.778198
0.791321
0.804749
0.818481
0.830994
0.844421
0.857544
0.870667
0.881958
0.895081
0.906982
0.919495
0.931396
0.942078
0.953979
0.964661
0.975647
0.985718
0.996399
1.00586
1.0144
1.02417
1.03333
1.04156
1.05103
1.05774
1.06659
1.073
1.08032
1.08673
1.09222
1.09833
1.10413
1.10931
1.1145
1.11908
1.12274
1.12701
1.13068
1.13373
1.13647
1.13953
1.14075
1.14319
1.1441
1.14624
1.14655
1.14685
1.14716
1.14716
1.14777
1.14777
1.14624
1.14532
1.1438
1.14288
1.13983
1.13861
1.13647
1.13342
1.13098
1.12823
1.12427
1.12183
1.11694
1.11359
1.10962
1.10596
1.10138
1.09802
1.09314
1.08887
1.08398
1.0788
1.07422
1.06964
1.06506
1.06018
1.05469
1.04889
1.0437
1.0379
1.03241
1.02661
1.02173
1.01562
1.01013
1.00494
0.999146
0.993652
0.988464
0.982361
0.977173
0.971375
0.966492
0.960083
0.95459
0.949707
0.944519
0.938416
0.933228
0.927429
0.922241
0.917358
0.911865
0.906067
0.901184
0.895691
0.890503
0.88562
0.880127
0.875854
0.870972
0.865784
0.861511
0.856323
0.851746
0.846252
0.84137
0.836792
0.831909
0.827332
0.823364
0.817566
0.813293
0.808716
0.804443
0.799866
0.795288
0.7901
0.785217
0.781555
0.777283
0.772705
0.768738
0.76416
0.759888
0.756531
0.751648
0.747681
0.744019
0.738831
0.734863
0.730591
0.726318
0.722046
0.717468
0.713196
0.708923
0.704956
0.700684
0.696411
0.691528
0.686951
0.683289
0.678711
0.673828
0.66925
0.665283
0.660706
0.656433
0.652161
0.646973
0.6427
0.638123
0.633545
0.628967
0.624695
0.620117
0.615845
0.610352
0.606689
0.601501
0.597839
0.592957
0.588379
0.584412
0.579834
0.575867
0.571594
0.567932
0.563049
0.558777
0.55542
0.551147
0.547791
0.543518
0.540161
0.537109
0.532837
0.53009
0.526733
0.523682
0.52063
0.517273
0.515442
0.51239
0.509644
0.507812
0.505371
0.502625
0.501099
0.498352
0.496826
0.49469
0.492249
0.490723
0.489197
0.487976
0.48584
0.484619
0.483704
0.482483
0.480652
0.480652
0.480042
0.478821
0.4776
0.477905
0.477295
0.476379
0.476379
0.476074
0.475769
0.476074
0.476074
0.476074
0.47699
0.476379
0.47699
0.477905
0.477905
0.478516
0.479431
0.480347
0.480042
0.481567
0.482483
0.483704
0.484619
0.485535
0.486145
0.487366
0.487976
0.488586
0.490112
0.491333
0.491943
0.493469
0.49408
0.495911
0.496521
0.498047
0.499268
0.500793
0.502625
0.503235
0.50415
0.504761
0.506897
0.507812
0.508728
0.509338
0.511169
0.511475
0.51178
0.513306
0.514526
0.514526
0.514832
0.515442
0.515747
0.516663
0.516663
0.517578
0.518188
0.518188
0.517578
0.518188
0.517883
0.518494
0.517883
0.518188
0.518188
0.517883
0.518494
0.517883
0.516968
0.516052
0.516052
0.516357
0.515442
0.515137
0.514221
0.513916
0.513
0.51178
0.510559
0.509949
0.508423
0.507202
0.505371
0.505371
0.50354
0.502014
0.499573
0.499268
0.497437
0.496216
0.49469
0.493469
0.491028
0.489502
0.487366
0.48584
0.484314
0.481873
0.479736
0.477905
0.476379
0.473938
0.471497
0.469666
0.467224
0.464783
0.462952
0.460815
0.458374
0.455933
0.453186
0.45105
0.448914
0.446167
0.443726
0.441895
0.439453
0.436707
0.434875
0.432434
0.429993
0.427246
0.426025
0.423584
0.420837
0.418396
0.415955
0.413818
0.411682
0.40863
0.406494
0.404053
0.402222
0.400085
0.397644
0.395813
0.393066
0.389709
0.388184
0.386047
0.383606
0.381165
0.378723
0.376892
0.375061
0.372314
0.371094
0.367737
0.365295
0.363464
0.361023
0.359802
0.357361
0.354919
0.354004
0.351562
0.349121
0.3479
0.346069
0.343933
0.342407
0.340576
0.33783
0.335999
0.334778
0.332947
0.331421
0.32959
0.327454
0.325928
0.324402
0.323181
0.321045
0.320129
0.318909
0.317078
0.315857
0.314331
0.31311
0.311584
0.309753
0.308838
0.307617
0.305481
0.304871
0.30365
0.301819
0.300903
0.299377
0.298157
0.296326
0.295715
0.293884
0.293274
0.292969
0.291138
0.289917
0.289001
0.288086
0.286255
0.286255
0.284729
0.282898
0.282898
0.281677
0.280762
0.279846
0.278931
0.27832
0.277405
0.276489
0.274963
0.274048
0.273438
0.272217
0.272217
0.270996
0.270386
0.270081
0.269165
0.26886
0.26886
0.267639
0.267334
0.265503
0.265808
0.264893
0.264282
0.263672
0.262146
0.261841
0.26123
0.260925
0.260315
0.260315
0.259094
0.258484
0.257568
0.257874
0.257263
0.256042
0.256653
0.256042
0.254517
0.254822
0.253296
0.252991
0.252075
0.25177
0.251465
0.25116
0.250549
0.249329
0.249329
0.249329
0.248413
0.248108
0.246887
0.246582
0.246277
0.245972
0.244751
0.244446
0.24353
0.242615
0.24231
0.241699
0.240784
0.240784
0.240479
0.238953
0.239258
0.238647
0.237732
0.237427
0.237122
0.237122
0.235901
0.235596
0.235596
0.23468
0.23468
0.23407
0.23407
0.233765
0.233459
0.232544
0.231934
0.231934
0.231934
0.231934
0.231018
0.231018
0.231018
0.231018
0.231323
0.230713
0.230713
0.230713
0.231323
0.231323
0.231628
0.232239
0.232544
0.232544
0.232544
0.233459
0.233765
0.233765
0.233765
0.23468
0.234985
0.235291
0.235901
0.236206
0.237427
0.236816
0.237732
0.238342
0.238647
0.239563
0.240173
0.240479
0.241699
0.24231
0.242615
0.243835
0.245056
0.246277
0.247498
0.248413
0.248108
0.249939
0.251465
0.252991
0.254211
0.255432
0.256958
0.257874
0.26001
0.26123
0.262451
0.264587
0.266418
0.268555
0.26947
0.272217
0.274658
0.276794
0.278931
0.282288
0.285034
0.288696
0.291748
0.29541
0.299683
0.30365
0.308533
0.31311
0.317383
0.323486
0.328064
0.333862
0.33905
0.345764
0.351257
0.358582
0.365906
0.37323
0.381165
0.389404
0.396423
0.404968
0.413818
0.423584
0.432129
0.4422
0.451965
0.462341
0.472412
0.483093
0.493469
0.504761
0.515442
0.528259
0.539246
0.551758
0.563049
0.575562
0.587769
0.600891
0.613403
0.626221
0.639038
0.652466
0.665283
0.678711
0.691833
0.704956
0.718384
0.732422
0.74585
0.758667
0.771179
0.785217
0.797729
0.811157
0.823975
0.836487
0.849609
0.861816
0.874329
0.885925
0.898438
0.909729
0.921631
0.932617
0.944519
0.9552
0.966187
0.975647
0.986633
0.997009
1.00616
1.01501
1.02417
1.03271
1.04004
1.04858
1.05621
1.06323
1.06995
1.07635
1.08307
1.08917
1.09497
1.09955
1.10443
1.10962
1.11237
1.11786
1.12122
1.12396
1.12732
1.12946
1.1322
1.13312
1.13525
1.13617
1.13708
1.138
1.1377
1.1377
1.13861
1.1377
1.13617
1.13617
1.13464
1.13312
1.13098
1.12885
1.12549
1.12305
1.12061
1.11725
1.11389
1.11053
1.10657
1.10291
1.09894
1.09436
1.09039
1.08551
1.08124
1.07666
1.07147
1.06659
1.0611
1.05591
1.05072
1.04584
1.03973
1.03424
1.02814
1.02264
1.01715
1.01044
1.00525
0.999451
0.992432
0.986938
0.980225
0.974731
0.968933
0.96283
0.956421
0.950012
0.944214
0.937805
0.932312
0.925903
0.92041
0.914612
0.908508
0.902405
0.896301
0.890503
0.88501
0.879517
0.873718
0.867615
0.862122
0.856934
0.851135
0.845642
0.840454
0.835266
0.829468
0.82428
0.819092
0.814209
0.809326
0.803833
0.798645
0.794067
0.789185
0.783997
0.779419
0.774231
0.770264
0.764771
0.760498
0.756226
0.751038
0.74707
0.742188
0.737915
0.733643
0.729065
0.724182
0.71991
0.715637
0.710449
0.706482
0.702515
0.697021
0.693054
0.687866
0.684204
0.679321
0.674133
0.670471
0.666504
0.661316
0.656433
0.652771
0.647888
0.643005
0.638733
0.635681
0.629578
0.626221
0.621338
0.617065
0.612793
0.608215
0.603638
0.599976
0.595398
0.5896
0.585938
0.581665
0.577393
0.573425
0.569458
0.565796
0.561829
0.557556
0.553589
0.549622
0.545654
0.541992
0.53772
0.535278
0.531311
0.527954
0.524597
0.52124
0.517883
0.515442
0.512695
0.508728
0.507507
0.503235
0.502014
0.498962
0.496521
0.494385
0.492249
0.490112
0.488281
0.48645
0.484314
0.483093
0.481262
0.480042
0.478516
0.47699
0.476685
0.474854
0.474548
0.473633
0.471802
0.472107
0.470886
0.470581
0.470886
0.470276
0.470886
0.470886
0.470276
0.470581
0.471497
0.471191
0.472107
0.473022
0.472717
0.473633
0.473633
0.475159
0.476074
0.476685
0.478516
0.479736
0.480652
0.481262
0.482483
0.484009
0.485229
0.48584
0.487366
0.489502
0.490112
0.491028
0.492249
0.493469
0.494995
0.496521
0.498047
0.498962
0.500183
0.502319
0.50354
0.505066
0.505676
0.507202
0.509033
0.509949
0.510864
0.51239
0.513306
0.514221
0.515442
0.516357
0.517273
0.518188
0.519714
0.52063
0.52063
0.522766
0.523376
0.523376
0.524902
0.525513
0.525818
0.527344
0.527649
0.528259
0.529175
0.528564
0.52948
0.52887
0.529175
0.52887
0.528259
0.528259
0.529175
0.528564
0.527649
0.527649
0.527649
0.526428
0.526123
0.525818
0.524902
0.523987
0.522766
0.521851
0.52063
0.52002
0.519104
0.517578
0.516357
0.515442
0.514221
0.512085
0.511169
0.509338
0.507812
0.505676
0.504761
0.50293
0.501404
0.499573
0.498657
0.495911
0.494995
0.492859
0.491638
0.488892
0.487976
0.485229
0.483398
0.480957
0.479431
0.47699
0.474243
0.473022
0.470276
0.467834
0.466003
0.464172
0.461426
0.459595
0.457153
0.455322
0.453186
0.450745
0.448303
0.444641
0.44342
0.441589
0.438843
0.436401
0.43457
0.432739
0.429993
0.427856
0.425415
0.423279
0.420532
0.419312
0.417175
0.415344
0.413513
0.410767
0.409241
0.406799
0.405273
0.403137
0.401611
0.398865
0.397644
0.394897
0.393372
0.391235
0.389404
0.386658
0.385132
0.383301
0.381165
0.379639
0.377502
0.376282
0.37384
0.371704
0.369873
0.368347
0.366516
0.36499
0.363159
0.361633
0.359497
0.357971
0.356445
0.354919
0.353394
0.351562
0.350342
0.348206
0.34668
0.345154
0.343628
0.342407
0.340576
0.339661
0.338135
0.336609
0.335388
0.334473
0.332947
0.332336
0.3302
0.329285
0.328369
0.326233
0.325623
0.323486
0.322876
0.32196
0.320129
0.319214
0.318909
0.317383
0.316162
0.315247
0.314026
0.3125
0.31189
0.310669
0.309143
0.309143
0.308228
0.306702
0.305176
0.30426
0.30304
0.302429
0.301208
0.300293
0.298462
0.297546
0.296631
0.295715
0.2948
0.294189
0.292969
0.292664
0.291138
0.290833
0.289917
0.288696
0.287476
0.28656
0.286255
0.285339
0.284729
0.284424
0.282593
0.281982
0.281067
0.280762
0.279236
0.278931
0.278625
0.278015
0.276489
0.276489
0.275269
0.274353
0.274658
0.273438
0.272217
0.271912
0.270081
0.270386
0.269165
0.268555
0.267639
0.266724
0.266724
0.265808
0.265808
0.265503
0.264282
0.263672
0.263977
0.263062
0.263367
0.262451
0.261536
0.26123
0.261841
0.26123
0.26062
0.26001
0.259399
0.258179
0.258484
0.258484
0.257874
0.257874
0.257568
0.256958
0.257263
0.257263
0.256958
0.256348
0.256653
0.256348
0.255737
0.255737
0.255432
0.256042
0.256042
0.255432
0.255432
0.255737
0.256042
0.255127
0.256348
0.256348
0.256653
0.256653
0.256348
0.257263
0.257263
0.258179
0.258179
0.257874
0.258179
0.259399
0.259094
0.26001
0.259094
0.26123
0.260925
0.26123
0.261536
0.262451
0.263367
0.263977
0.265808
0.266113
0.266724
0.267639
0.269165
0.269165
0.270996
0.271301
0.272522
0.274048
0.274963
0.276184
0.27771
0.278931
0.280457
0.281982
0.284119
0.28595
0.288391
0.289917
0.292664
0.2948
0.297241
0.300293
0.30365
0.306702
0.309143
0.31311
0.316772
0.320129
0.324097
0.328674
0.332947
0.338135
0.343018
0.348206
0.353699
0.359802
0.365601
0.372009
0.378418
0.384827
0.392151
0.399475
0.406799
0.415649
0.423279
0.432129
0.440979
0.450134
0.45929
0.46875
0.478821
0.489197
0.499573
0.509949
0.520935
0.532227
0.543823
0.555115
0.567627
0.580139
0.592041
0.605469
0.618286
0.630798
0.643311
0.656128
0.66925
0.682373
0.695801
0.709534
0.722656
0.736389
0.749817
0.763245
0.776978
0.790405
0.803223
0.816345
0.830078
0.843506
0.856018
0.869446
0.881653
0.89447
0.905762
0.919189
0.930176
0.942078
0.953369
0.96405
0.975647
0.985413
0.99762
1.00739
1.01715
1.02661
1.03638
1.04553
1.05347
1.06171
1.07025
1.07788
1.08521
1.09283
1.09985
1.10596
1.11206
1.11725
1.12335
1.12793
1.1322
1.13617
1.14044
1.1441
1.14716
1.15021
1.15234
1.15479
1.15631
1.15784
1.15906
1.16028
1.16058
1.16089
1.16028
1.15997
1.15997
1.15875
1.15753
1.15509
1.15387
1.15173
1.14899
1.14594
1.1441
1.14014
1.1377
1.13373
1.13007
1.1264
1.12244
1.11847
1.11389
1.10901
1.10504
1.10046
1.09589
1.09009
1.08521
1.08063
1.07452
1.06903
1.06415
1.05804
1.05225
1.04706
1.04156
1.03546
1.03027
1.02417
1.01837
1.01257
1.00647
1.00128
0.994873
0.989075
0.982666
0.977173
0.971069
0.966187
0.960083
0.953674
0.949097
0.943298
0.937805
0.932312
0.926208
0.920715
0.915222
0.910339
0.904541
0.898438
0.892639
0.887756
0.882568
0.876465
0.871582
0.866394
0.861511
0.855713
0.851135
0.845642
0.839844
0.835266
0.830383
0.825195
0.820312
0.81543
0.811157
0.806274
0.801392
0.797119
0.791626
0.786743
0.783386
0.777893
0.77301
0.768433
0.763855
0.759888
0.755615
0.750427
0.746155
0.740967
0.737
0.731812
0.728149
0.723877
0.718994
0.714722
0.709534
0.705566
0.701294
0.696411
0.691223
0.686646
0.682678
0.677185
0.672913
0.667419
0.662537
0.658569
0.653381
0.648804
0.643921
0.639648
0.63385
0.629272
0.62439
0.619812
0.614929
0.610046
0.605774
0.601196
0.596619
0.591431
0.586853
0.582275
0.578003
0.57312
0.569153
0.565186
0.560608
0.556641
0.552673
0.548401
0.544434
0.540466
0.53772
0.534058
0.530396
0.526428
0.523071
0.52063
0.516663
0.514221
0.511475
0.508118
0.505981
0.503235
0.500183
0.498657
0.496826
0.494385
0.492554
0.489807
0.488281
0.485535
0.485229
0.483398
0.483093
0.480347
0.480042
0.478821
0.478821
0.4776
0.4776
0.47699
0.476074
0.476379
0.475464
0.476074
0.475769
0.475464
0.476074
0.475769
0.476074
0.47699
0.477905
0.479126
0.480042
0.480347
0.481567
0.482178
0.483704
0.484314
0.48645
0.487061
0.488281
0.489502
0.491028
0.491638
0.492859
0.494995
0.495605
0.496826
0.498657
0.499573
0.500793
0.502319
0.50415
0.505371
0.507202
0.507812
0.509644
0.51178
0.511475
0.513306
0.514526
0.514832
0.516357
0.517883
0.519409
0.520325
0.520935
0.522461
0.523376
0.524292
0.525208
0.525818
0.526733
0.528564
0.529785
0.52948
0.530396
0.531311
0.531616
0.531616
0.532227
0.532227
0.532532
0.532837
0.532227
0.532837
0.532532
0.532227
0.531311
0.531616
0.531616
0.530701
0.530396
0.529785
0.529785
0.52887
0.527954
0.526733
0.525208
0.525208
0.523376
0.522156
0.52063
0.519714
0.518799
0.517273
0.516357
0.514832
0.513
0.51178
0.509949
0.508118
0.506592
0.505371
0.50293
0.501099
0.499878
0.498352
0.495605
0.494385
0.491943
0.490723
0.487976
0.485535
0.483398
0.481567
0.479126
0.477295
0.474548
0.471802
0.469666
0.467834
0.465088
0.462646
0.460205
0.458374
0.455933
0.452881
0.451355
0.448914
0.446777
0.444031
0.440979
0.438843
0.436401
0.433655
0.431519
0.429382
0.426331
0.423279
0.420837
0.418396
0.415649
0.413513
0.410461
0.408325
0.406189
0.403442
0.400391
0.398254
0.395813
0.393066
0.39093
0.387573
0.384827
0.382385
0.379944
0.377808
0.375366
0.37262
0.370483
0.368347
0.366211
0.363464
0.361633
0.358887
0.357666
0.35553
0.353699
0.351562
0.349426
0.346985
0.345459
0.343323
0.341187
0.339355
0.33783
0.335388
0.334167
0.332642
0.330505
0.328674
0.327148
0.325012
0.324097
0.322876
0.321655
0.319824
0.318604
0.315857
0.314636
0.313721
0.3125
0.310669
0.308838
0.307617
0.307007
0.304871
0.303955
0.301819
0.301514
0.299988
0.298767
0.297852
0.296326
0.2948
0.294495
0.293579
0.291748
0.290527
0.289307
0.288086
0.286255
0.28595
0.284729
0.283813
0.282593
0.281677
0.281067
0.280151
0.278625
0.27771
0.2771
0.276184
0.275879
0.274658
0.274048
0.272827
0.271912
0.270996
0.26947
0.26947
0.26825
0.266418
0.266418
0.264587
0.264587
0.263672
0.262146
0.26123
0.260925
0.260315
0.259399
0.258179
0.258484
0.257263
0.257568
0.256042
0.255432
0.254822
0.253906
0.252686
0.252075
0.25177
0.250854
0.250549
0.248718
0.248108
0.247803
0.247498
0.246887
0.245972
0.245361
0.244751
0.244141
0.243835
0.243835
0.242615
0.242615
0.241699
0.240784
0.240479
0.240479
0.239563
0.238953
0.237732
0.238647
0.237427
0.237122
0.236206
0.235901
0.235901
0.235596
0.235596
0.23468
0.23468
0.235291
0.235291
0.235901
0.235291
0.234375
0.23468
0.23468
0.235291
0.23468
0.235291
0.235291
0.235291
0.235291
0.235596
0.236206
0.236511
0.236206
0.238037
0.237732
0.237427
0.239258
0.239258
0.239258
0.239868
0.241699
0.241394
0.24292
0.24231
0.243225
0.245056
0.245056
0.245972
0.247803
0.248718
0.248413
0.249939
0.251465
0.252686
0.253906
0.254822
0.256958
0.257874
0.259399
0.26062
0.262146
0.263977
0.265198
0.266724
0.268555
0.270691
0.272827
0.274658
0.277405
0.280762
0.282288
0.284729
0.288696
0.292053
0.29541
0.299377
0.302734
0.307007
0.310974
0.315857
0.320435
0.325623
0.331116
0.337524
0.342712
0.349121
0.355835
0.362549
0.369568
0.377197
0.384521
0.393372
0.401611
0.410156
0.419006
0.427856
0.437317
0.447083
0.457764
0.467529
0.4776
0.487976
0.499268
0.510559
0.521545
0.532532
0.544739
0.556946
0.568848
0.581055
0.593262
0.605164
0.619202
0.631409
0.643616
0.657959
0.671082
0.683899
0.697021
0.710449
0.722961
0.736389
0.749207
0.763245
0.775452
0.788574
0.801086
0.814819
0.827026
0.839844
0.852356
0.864258
0.87616
0.888672
0.899963
0.911865
0.922852
0.933533
0.943909
0.955505
0.965271
0.974731
0.984802
0.993958
1.00189
1.01166
1.01898
1.02753
1.03577
1.04279
1.05072
1.05682
1.06354
1.06934
1.07513
1.08063
1.08582
1.09039
1.09497
1.09894
1.10199
1.10626
1.10901
1.11084
1.11298
1.11542
1.11664
1.11816
1.11908
1.11938
1.1203
1.12061
1.12091
1.11969
1.11877
1.11816
1.11633
1.11511
1.11359
1.11084
1.1087
1.10657
1.10291
1.10077
1.09772
1.09436
1.09161
1.08673
1.08215
1.07819
1.07574
1.07117
1.06659
1.06171
1.05743
1.05347
1.04828
1.04309
1.0379
1.03394
1.02783
1.02295
1.01715
1.01227
1.00677
1.0022
0.996094
0.990295
0.984802
0.980225
0.974121
0.969238
0.96405
0.959473
0.953064
0.947571
0.941772
0.937195
0.931702
0.925903
0.920715
0.914612
0.909729
0.903931
0.898132
0.894165
0.888367
0.882874
0.877991
0.872803
0.86731
0.862427
0.858154
0.853882
0.849304
0.843811
0.839233
0.834656
0.830994
0.826416
0.821228
0.816956
0.812988
0.808105
0.804749
0.799866
0.795898
0.791626
0.787354
0.783386
0.779724
0.775146
0.771179
0.766602
0.762939
0.759888
0.75531
0.751953
0.747681
0.744324
0.739136
0.734863
0.730896
0.727234
0.722961
0.719299
0.715332
0.711365
0.707092
0.702209
0.698242
0.69458
0.690002
0.686646
0.682373
0.678406
0.674133
0.66864
0.665588
0.660706
0.656433
0.652771
0.648804
0.643616
0.639648
0.63385
0.630493
0.62561
0.622253
0.617371
0.612793
0.608215
0.604248
0.59906
0.595398
0.59082
0.586853
0.582275
0.578003
0.57312
0.569153
0.565796
0.561218
0.556641
0.552368
0.547791
0.544128
0.540466
0.536194
0.532837
0.529175
0.525208
0.52124
0.517883
0.514526
0.511169
0.508118
0.504761
0.502625
0.498962
0.495911
0.493469
0.490112
0.487366
0.48584
0.482788
0.480347
0.478516
0.47699
0.475159
0.473022
0.471802
0.469971
0.468445
0.467224
0.466614
0.465393
0.464478
0.463257
0.462341
0.462036
0.461121
0.460815
0.460205
0.460205
0.4599
0.46051
0.459595
0.459595
0.460815
0.459595
0.461121
0.460815
0.461426
0.461731
0.462036
0.463562
0.463562
0.463867
0.465088
0.465393
0.466614
0.466919
0.467529
0.46936
0.469971
0.470581
0.471497
0.472412
0.472412
0.473938
0.475769
0.475769
0.477905
0.477905
0.479126
0.480042
0.480347
0.481567
0.482483
0.484009
0.484314
0.484619
0.48584
0.48584
0.48645
0.486755
0.488281
0.488281
0.489197
0.489807
0.489197
0.490723
0.490723
0.491943
0.491943
0.492554
0.491638
0.491943
0.491638
0.491333
0.491638
0.491028
0.491028
0.491028
0.490112
0.490112
0.489807
0.488892
0.488586
0.487366
0.48645
0.486145
0.485229
0.484619
0.484314
0.483093
0.482178
0.481567
0.480347
0.478516
0.4776
0.476685
0.475159
0.473938
0.472717
0.470581
0.469666
0.46814
0.466614
0.465698
0.464172
0.462036
0.460815
0.458374
0.456848
0.455933
0.454102
0.451965
0.449829
0.447998
0.445862
0.444031
0.441895
0.440063
0.437317
0.436401
0.433655
0.431824
0.428772
0.427246
0.425415
0.423584
0.421143
0.418701
0.416565
0.415039
0.412292
0.410156
0.407104
0.405273
0.402832
0.400085
0.397339
0.395203
0.393066
0.390015
0.388794
0.385742
0.383301
0.381165
0.378723
0.376282
0.374451
0.37262
0.369873
0.368042
0.365295
0.363464
0.361328
0.359192
0.357056
0.354919
0.352783
0.350342
0.348206
0.346069
0.343323
0.341797
0.33905
0.33783
0.336304
0.333862
0.332031
0.3302
0.327759
0.326538
0.324097
0.322571
0.32074
0.318298
0.316467
0.314636
0.312805
0.311279
0.310364
0.307617
0.305786
0.30426
0.30304
0.301819
0.299377
0.298462
0.296631
0.2948
0.293884
0.293274
0.291138
0.290527
0.288391
0.28717
0.28595
0.284424
0.283508
0.281982
0.280151
0.279541
0.278625
0.2771
0.275879
0.274963
0.273438
0.272522
0.271912
0.270386
0.270081
0.268555
0.267639
0.265808
0.265198
0.264587
0.263672
0.262451
0.261536
0.26123
0.259399
0.258484
0.256653
0.256958
0.256042
0.255432
0.254517
0.254211
0.252686
0.25116
0.250549
0.249329
0.249023
0.247498
0.246887
0.246277
0.245361
0.244751
0.244141
0.24292
0.24231
0.241089
0.239563
0.239563
0.238953
0.237427
0.236816
0.236511
0.236206
0.234375
0.233765
0.232544
0.232239
0.231628
0.231628
0.230408
0.229797
0.228577
0.227661
0.227356
0.22644
0.22583
0.22522
0.224915
0.224304
0.223694
0.223083
0.222778
0.222168
0.221558
0.220032
0.220337
0.218811
0.219116
0.219116
0.218201
0.217896
0.21759
0.216675
0.21637
0.216064
0.215759
0.215759
0.215454
0.215454
0.214844
0.215149
0.214844
0.214233
0.214233
0.214233
0.214233
0.214233
0.214233
0.214539
0.214233
0.214844
0.214539
0.214844
0.215149
0.214844
0.216064
0.215454
0.216675
0.216064
0.216675
0.216675
0.21759
0.217896
0.217896
0.219421
0.219116
0.220947
0.221252
0.221252
0.222473
0.222778
0.224304
0.224304
0.22522
0.22644
0.226746
0.227966
0.228882
0.230103
0.231323
0.231628
0.233154
0.234375
0.235596
0.235901
0.237427
0.239563
0.241699
0.24292
0.244446
0.245972
0.246887
0.249023
0.250854
0.252991
0.255127
0.257263
0.259399
0.261841
0.264282
0.267944
0.270691
0.274048
0.27832
0.281372
0.285034
0.289612
0.293579
0.297241
0.302429
0.307312
0.31189
0.317993
0.322876
0.328979
0.335388
0.341797
0.349426
0.35675
0.36438
0.372314
0.379944
0.387878
0.396423
0.406189
0.415344
0.424194
0.43396
0.444336
0.454102
0.464783
0.475464
0.48584
0.496826
0.508728
0.52002
0.531311
0.543823
0.55603
0.567932
0.581055
0.593567
0.606079
0.618896
0.631714
0.644531
0.657654
0.670471
0.683594
0.696716
0.710144
0.723572
0.735779
0.748901
0.762024
0.774231
0.786743
0.799561
0.812073
0.82428
0.837402
0.848999
0.860901
0.872498
0.883789
0.895996
0.905762
0.917053
0.927734
0.93811
0.947571
0.957336
0.967407
0.975952
0.984192
0.993652
1.00189
1.00891
1.01715
1.02448
1.03088
1.0376
1.04401
1.05011
1.05591
1.05988
1.06567
1.07056
1.07513
1.07758
1.08124
1.08521
1.08673
1.09009
1.09192
1.09344
1.09497
1.0965
1.09711
1.09833
1.09894
1.09985
1.09985
1.09985
1.09894
1.09833
1.09741
1.0968
1.09497
1.09406
1.09131
1.08887
1.08643
1.08459
1.08154
1.0788
1.07483
1.07208
1.06842
1.06598
1.0611
1.05774
1.05377
1.05011
1.04523
1.04156
1.03729
1.03363
1.02814
1.02356
1.01868
1.01471
1.00922
1.00372
0.99884
0.993958
0.989075
0.983582
0.977478
0.973206
0.967712
0.962524
0.957947
0.952148
0.946655
0.941162
0.936584
0.930786
0.926208
0.92041
0.914917
0.910339
0.905151
0.899048
0.89386
0.889282
0.884399
0.879822
0.875244
0.870056
0.865784
0.860291
0.855103
0.85083
0.846863
0.842896
0.838013
0.83313
0.829468
0.824585
0.820923
0.815735
0.812378
0.8078
0.803528
0.799255
0.795288
0.791931
0.787354
0.783386
0.780029
0.775757
0.77179
0.768127
0.76416
0.760498
0.756836
0.753479
0.749512
0.745544
0.742188
0.738525
0.734863
0.731201
0.728149
0.723572
0.718994
0.715332
0.711365
0.707397
0.70343
0.699463
0.695496
0.691528
0.687256
0.683594
0.679321
0.675049
0.670471
0.666199
0.661926
0.657043
0.652771
0.648499
0.643921
0.639954
0.63446
0.630188
0.626221
0.622253
0.616455
0.613098
0.608215
0.603027
0.599365
0.594482
0.5896
0.585632
0.58075
0.575867
0.572205
0.568237
0.563354
0.558167
0.55481
0.550232
0.546265
0.542297
0.53772
0.534363
0.53009
0.526733
0.522766
0.52002
0.515747
0.512695
0.508728
0.505676
0.502625
0.498962
0.496216
0.492859
0.491028
0.487671
0.485229
0.482788
0.480347
0.477905
0.475159
0.473022
0.471497
0.469055
0.467529
0.466919
0.464478
0.463562
0.462036
0.460205
0.45929
0.458374
0.457458
0.456543
0.455933
0.454407
0.455017
0.453491
0.453186
0.452881
0.452576
0.452271
0.452271
0.452576
0.452576
0.45166
0.452271
0.452881
0.453186
0.453491
0.454102
0.453796
0.455017
0.455017
0.455322
0.456848
0.457458
0.457764
0.459595
0.460205
0.460815
0.462341
0.463257
0.464783
0.465393
0.466919
0.467834
0.468445
0.469666
0.470581
0.472412
0.473022
0.473022
0.473938
0.474548
0.475769
0.47699
0.477295
0.477295
0.478516
0.478821
0.480347
0.480347
0.480347
0.481567
0.481567
0.481873
0.482178
0.482178
0.482483
0.482788
0.482483
0.483704
0.482788
0.483093
0.482788
0.483398
0.482788
0.482178
0.481567
0.480957
0.480957
0.480652
0.480042
0.479736
0.480042
0.477295
0.476685
0.476379
0.475159
0.474548
0.473022
0.471802
0.470886
0.46936
0.46814
0.466309
0.465393
0.464172
0.462036
0.46051
0.45929
0.458374
0.456543
0.455017
0.452576
0.45166
0.449524
0.448303
0.446472
0.444641
0.441895
0.440063
0.437622
0.436401
0.434265
0.431824
0.430908
0.427551
0.426025
0.423279
0.421753
0.419617
0.41687
0.415344
0.411987
0.410767
0.407104
0.405884
0.402527
0.401001
0.398254
0.396118
0.393677
0.39093
0.388184
0.386047
0.383911
0.38147
0.379028
0.376892
0.374756
0.372314
0.370178
0.368042
0.365295
0.362854
0.360413
0.358582
0.35675
0.353699
0.352173
0.349426
0.34729
0.344238
0.342712
0.340881
0.338745
0.336609
0.334167
0.332031
0.32959
0.328369
0.325317
0.323181
0.32135
0.319214
0.317688
0.315857
0.314636
0.31189
0.310059
0.308533
0.307007
0.304871
0.303345
0.302734
0.300293
0.299377
0.297241
0.296021
0.294189
0.293274
0.292358
0.291443
0.289612
0.287781
0.28656
0.285339
0.284424
0.284119
0.281677
0.281067
0.279541
0.278625
0.2771
0.276184
0.274963
0.274048
0.272827
0.271912
0.270996
0.270081
0.26886
0.267334
0.267334
0.266113
0.264587
0.264587
0.263062
0.262146
0.261841
0.26062
0.26001
0.257874
0.257568
0.256653
0.256042
0.254822
0.253906
0.253296
0.252075
0.25116
0.25116
0.250244
0.250244
0.249634
0.247803
0.248108
0.247498
0.245667
0.245056
0.244446
0.244141
0.24353
0.243225
0.241394
0.241699
0.240479
0.240784
0.239563
0.239258
0.238647
0.239563
0.237732
0.237427
0.236511
0.235596
0.235291
0.234375
0.234375
0.234375
0.232849
0.232544
0.232239
0.231934
0.230713
0.229797
0.230103
0.229797
0.229187
0.228577
0.228271
0.227661
0.227356
0.227051
0.226746
0.226746
0.225525
0.226135
0.225525
0.22583
0.22522
0.22522
0.224609
0.224609
0.223999
0.223694
0.223999
0.223389
0.223999
0.223999
0.223999
0.223694
0.223389
0.223694
0.224609
0.224304
0.223999
0.223999
0.224609
0.224304
0.224915
0.225525
0.22522
0.224609
0.225525
0.22522
0.226135
0.226135
0.226135
0.22644
0.227051
0.227661
0.228577
0.228577
0.229187
0.229797
0.229492
0.230103
0.231018
0.231934
0.232544
0.233765
0.233459
0.233765
0.23468
0.234985
0.235901
0.237122
0.237427
0.238342
0.238953
0.239868
0.241699
0.241699
0.243225
0.243835
0.245361
0.246277
0.247803
0.249023
0.250549
0.250854
0.25238
0.253601
0.255432
0.256653
0.258789
0.26062
0.262146
0.264587
0.266113
0.26825
0.270996
0.274353
0.276489
0.279541
0.282288
0.285645
0.288696
0.292358
0.296631
0.299683
0.303955
0.308228
0.31311
0.317383
0.32196
0.328064
0.334167
0.33905
0.345154
0.352173
0.359192
0.366516
0.37384
0.381775
0.389099
0.397034
0.406494
0.414124
0.423279
0.43335
0.4422
0.452271
0.462036
0.472107
0.483398
0.494385
0.504456
0.515747
0.527954
0.539246
0.550842
0.563049
0.575867
0.587463
0.601196
0.612793
0.625916
0.638123
0.65094
0.663452
0.67749
0.690002
0.703735
0.716248
0.72876
0.742188
0.755615
0.768127
0.780945
0.793457
0.80658
0.819702
0.832214
0.844421
0.856628
0.868835
0.879822
0.892334
0.903015
0.914917
0.925903
0.93689
0.94635
0.957947
0.967407
0.976868
0.986633
0.996094
1.00494
1.0141
1.02173
1.02905
1.03729
1.04401
1.05133
1.05743
1.06384
1.07056
1.07513
1.08032
1.08459
1.08948
1.09314
1.09711
1.10046
1.10321
1.10596
1.10901
1.11053
1.11206
1.1145
1.11511
1.11603
1.11664
1.11694
1.11633
1.11633
1.11572
1.11511
1.1145
1.11267
1.11084
1.10931
1.10687
1.10535
1.10229
1.09955
1.0968
1.09497
1.091
1.08856
1.0849
1.08093
1.07697
1.07239
1.06873
1.06506
1.06079
1.0556
1.05103
1.04736
1.04279
1.0376
1.03241
1.02661
1.02295
1.01807
1.01166
1.00708
1.00189
0.997009
0.991516
0.986633
0.980835
0.975952
0.970459
0.964355
0.959778
0.953979
0.948486
0.942688
0.93811
0.932007
0.927124
0.921326
0.916138
0.910645
0.906372
0.900879
0.896301
0.891418
0.885925
0.880737
0.87616
0.871277
0.866394
0.862427
0.856934
0.852356
0.848083
0.843506
0.839539
0.834351
0.830994
0.826721
0.823364
0.818176
0.814209
0.810547
0.806274
0.802612
0.797729
0.794678
0.790405
0.786438
0.783081
0.779419
0.775452
0.7724
0.768127
0.76416
0.759888
0.756836
0.753174
0.748596
0.744934
0.741882
0.73761
0.734253
0.72998
0.726929
0.722961
0.720215
0.715942
0.711365
0.707397
0.70343
0.699463
0.695801
0.691223
0.687561
0.682983
0.678711
0.674133
0.670776
0.665588
0.661926
0.657654
0.653076
0.648804
0.643616
0.639343
0.635071
0.630188
0.62561
0.621643
0.617371
0.612793
0.60791
0.604553
0.59906
0.594788
0.59021
0.585327
0.58197
0.577087
0.57373
0.568848
0.564575
0.560303
0.557251
0.552673
0.548401
0.545349
0.540771
0.537415
0.533752
0.530396
0.526123
0.523682
0.519409
0.516663
0.513916
0.511475
0.508423
0.505066
0.50293
0.500183
0.497742
0.495911
0.493469
0.491333
0.489197
0.487366
0.486145
0.484619
0.483398
0.481262
0.480042
0.478821
0.4776
0.476074
0.475464
0.474854
0.473633
0.473633
0.472107
0.471802
0.471191
0.469666
0.470581
0.469971
0.469971
0.469666
0.469666
0.470581
0.469666
0.469971
0.469666
0.469666
0.470581
0.470581
0.470276
0.471802
0.471497
0.472107
0.472412
0.473633
0.474243
0.474243
0.474548
0.475464
0.476379
0.47699
0.4776
0.478516
0.478516
0.47821
0.479431
0.479736
0.480957
0.480652
0.481873
0.482178
0.482483
0.484009
0.484619
0.484619
0.484924
0.484924
0.486145
0.48645
0.486755
0.486755
0.487366
0.488281
0.487671
0.488281
0.488892
0.488892
0.488892
0.489197
0.488892
0.488586
0.488586
0.488281
0.487671
0.487671
0.487061
0.487366
0.486145
0.48645
0.48584
0.484314
0.484619
0.483704
0.482788
0.482178
0.480347
0.479736
0.479431
0.4776
0.47699
0.474854
0.473938
0.473633
0.472107
0.470886
0.469666
0.46814
0.466309
0.465698
0.464172
0.463257
0.461121
0.459595
0.458069
0.455627
0.454407
0.452881
0.45166
0.449524
0.446777
0.445251
0.444031
0.441895
0.439453
0.437317
0.435486
0.433655
0.431519
0.429993
0.427246
0.425415
0.424194
0.421753
0.418701
0.417786
0.415039
0.412292
0.409241
0.407715
0.405579
0.403137
0.400696
0.398254
0.395813
0.393677
0.391235
0.388794
0.386353
0.384521
0.38147
0.379333
0.376892
0.375061
0.372009
0.370178
0.367432
0.36499
0.363159
0.360718
0.357971
0.356445
0.354004
0.351562
0.349121
0.34729
0.345154
0.343933
0.340576
0.33905
0.337524
0.334778
0.333557
0.331116
0.32959
0.328369
0.325928
0.324402
0.322266
0.319824
0.317993
0.317078
0.315247
0.31311
0.31189
0.309448
0.309143
0.307007
0.307007
0.30426
0.30365
0.302124
0.300598
0.299988
0.298462
0.296631
0.296021
0.2948
0.292969
0.292358
0.291443
0.290527
0.288696
0.287476
0.28656
0.285645
0.284729
0.284119
0.282593
0.281982
0.280762
0.279846
0.278931
0.27832
0.276794
0.276489
0.274658
0.274353
0.272827
0.271301
0.270691
0.269775
0.269165
0.267334
0.266418
0.265198
0.264893
0.264893
0.263367
0.263062
0.262451
0.261536
0.26123
0.26062
0.260315
0.259399
0.258179
0.257568
0.256958
0.256042
0.256348
0.255432
0.254517
0.255432
0.253601
0.253601
0.252991
0.252075
0.25177
0.25116
0.250854
0.25116
0.250244
0.250244
0.249634
0.248413
0.248413
0.247192
0.248108
0.246582
0.246582
0.246277
0.245972
0.244751
0.244751
0.244751
0.243225
0.24353
0.242615
0.24231
0.242615
0.241699
0.241089
0.241394
0.241089
0.240479
0.240479
0.239563
0.239563
0.239258
0.238953
0.238342
0.238647
0.237732
0.237732
0.238342
0.238342
0.238647
0.237427
0.237732
0.238342
0.237732
0.238037
0.237732
0.237732
0.237732
0.238037
0.237732
0.238037
0.237427
0.237732
0.238342
0.238342
0.238647
0.238647
0.238953
0.238647
0.238953
0.240479
0.239563
0.239258
0.239563
0.239868
0.240479
0.240784
0.240479
0.241394
0.24231
0.241699
0.243225
0.24292
0.24292
0.24353
0.243835
0.244446
0.244751
0.245972
0.246277
0.246582
0.246887
0.248413
0.249329
0.249939
0.250549
0.251465
0.25177
0.252075
0.252686
0.254517
0.254822
0.256042
0.256348
0.256653
0.258789
0.258789
0.26062
0.26123
0.262146
0.262451
0.264282
0.265503
0.266113
0.267639
0.26886
0.270081
0.271912
0.272827
0.274048
0.275879
0.277405
0.279236
0.281677
0.283203
0.285339
0.28656
0.289917
0.292053
0.294189
0.297546
0.300293
0.30304
0.306702
0.309448
0.313721
0.317993
0.322571
0.326843
0.330811
0.335693
0.341187
0.346069
0.352783
0.357666
0.363159
0.369568
0.377197
0.383911
0.392151
0.398865
0.406799
0.415039
0.423584
0.432739
0.441589
0.451355
0.460205
0.469971
0.480347
0.490112
0.501709
0.512695
0.523071
0.534058
0.545044
0.557556
0.569153
0.58075
0.593872
0.604858
0.618286
0.630493
0.642395
0.656128
0.66925
0.681152
0.69397
0.707092
0.72052
0.733337
0.746155
0.758972
0.772095
0.784607
0.797119
0.809631
0.822449
0.83374
0.846558
0.858459
0.870361
0.881653
0.893555
0.905457
0.915833
0.927124
0.938416
0.948181
0.957336
0.967712
0.976868
0.986938
0.996094
1.00372
1.01288
1.02081
1.02814
1.03607
1.04279
1.05011
1.05713
1.06293
1.06842
1.0733
1.07971
1.08368
1.08795
1.09161
1.09589
1.09802
1.10199
1.10443
1.10748
1.10962
1.11115
1.11267
1.1145
1.11511
1.11542
1.11633
1.11633
1.11664
1.11542
1.1142
1.1142
1.11359
1.11145
1.10962
1.10809
1.10535
1.10321
1.10077
1.09863
1.09528
1.09192
1.08978
1.0849
1.08307
1.0788
1.07544
1.07147
1.0672
1.06323
1.05896
1.05438
1.05042
1.04553
1.04004
1.03607
1.03027
1.026
1.0202
1.01471
1.01074
1.00555
1.00006
0.993958
0.98877
0.984802
0.979004
0.973206
0.968323
0.963745
0.957642
0.952148
0.947266
0.941772
