0.00350952
0.00320435
0.00244141
0.00152588
0.00106812
0.0
-0.000610352
-0.00137329
-0.0012207
-0.00198364
-0.00183105
-0.00198364
-0.00183105
-0.00106812
-0.000915527
-0.000915527
-0.000305176
0.000305176
0.000610352
0.000610352
0.000610352
0.0
-0.000610352
-0.000762939
-0.00137329
-0.00152588
-0.00213623
-0.00228882
-0.00213623
-0.00228882
-0.00305176
-0.00228882
-0.00167847
-0.00152588
-0.00137329
-0.000915527
-0.000915527
-0.000762939
-0.000610352
-0.000457764
-0.00106812
-0.00137329
-0.00198364
-0.00305176
-0.00335693
-0.00396729
-0.00442505
-0.00488281
-0.0050354
-0.0050354
-0.00442505
-0.00411987
-0.00320435
-0.00259399
-0.00167847
-0.00137329
-0.000152588
0.000457764
0.000457764
0.000457764
0.000762939
0.000762939
0.0
-0.000457764
-0.00106812
-0.0012207
-0.00167847
-0.00228882
-0.00228882
-0.00244141
-0.00274658
-0.00244141
-0.00228882
-0.00198364
-0.00183105
-0.00152588
-0.00183105
-0.00137329
-0.0012207
-0.00137329
-0.00152588
-0.00183105
-0.00213623
-0.00244141
-0.00289917
-0.00350952
-0.00350952
-0.00366211
-0.00350952
-0.00335693
-0.00289917
-0.00228882
-0.00137329
-0.000457764
0.000610352
0.00137329
0.00167847
0.00244141
0.00320435
0.00320435
0.00350952
0.00335693
0.00289917
0.00244141
0.00198364
0.00167847
0.00106812
0.000610352
0.000305176
-0.000152588
0.0
0.0
0.000457764
0.00106812
0.00152588
0.00198364
0.00198364
0.00228882
0.00305176
0.00289917
0.00289917
0.00213623
0.00198364
0.00137329
0.00106812
0.000457764
0.000152588
0.000152588
-0.000305176
0.0
-0.000152588
0.000152588
0.000762939
0.000915527
0.0012207
0.00167847
0.00183105
0.00183105
0.00183105
0.00183105
0.00137329
0.000915527
0.000305176
-0.000457764
-0.000915527
-0.00167847
-0.00228882
-0.00244141
-0.00274658
-0.00259399
-0.00274658
-0.00259399
-0.00183105
-0.00137329
-0.000762939
0.000152588
0.000152588
0.000915527
0.0012207
0.00167847
0.00167847
0.00106812
0.000610352
0.000610352
-0.000152588
-0.000915527
-0.00106812
-0.000915527
-0.0012207
-0.00137329
-0.0012207
-0.000610352
-0.000152588
0.000457764
0.0012207
0.0012207
0.00152588
0.00152588
0.00213623
0.00198364
0.00183105
0.00167847
0.000915527
0.000152588
-0.000305176
-0.000762939
-0.0012207
-0.00167847
-0.00213623
-0.00244141
-0.00228882
-0.00198364
-0.00183105
-0.00167847
-0.00152588
-0.000610352
-0.000457764
-0.000305176
0.0
-0.000152588
-0.000152588
-0.000457764
-0.000457764
-0.0012207
-0.00183105
-0.00213623
-0.00213623
-0.00213623
-0.00228882
-0.00198364
-0.00183105
-0.00106812
-0.000305176
0.000305176
0.000610352
0.00137329
0.00152588
0.00198364
0.00228882
0.00213623
0.00183105
0.00137329
0.000762939
0.0
-0.000915527
-0.00152588
-0.00213623
-0.00259399
-0.00289917
-0.00335693
-0.0038147
-0.00335693
-0.00274658
-0.00289917
-0.00213623
-0.00198364
-0.00167847
-0.00152588
-0.0012207
-0.00106812
-0.00167847
-0.00198364
-0.00244141
-0.00320435
-0.0038147
-0.00411987
-0.00488281
-0.00518799
-0.0050354
-0.00534058
-0.00549316
-0.00457764
-0.00427246
-0.00350952
-0.00259399
-0.00244141
-0.00167847
-0.0012207
-0.00106812
-0.000762939
-0.000457764
-0.00106812
-0.0012207
-0.00137329
-0.00198364
-0.00183105
-0.00228882
-0.00259399
-0.00274658
-0.00289917
-0.00244141
-0.00198364
-0.00183105
-0.0012207
0.120087
0.164185
0.212402
0.264435
0.319977
0.379486
0.441284
0.504608
0.569
0.631714
0.692444
0.747681
0.796356
0.838165
0.870361
0.893097
0.905609
0.907745
0.900116
0.882263
0.853729
0.814362
0.765686
0.706177
0.638885
0.563812
0.482178
0.39566
0.306702
0.217438
0.127258
0.0404358
-0.0415039
-0.118408
-0.187988
-0.249023
-0.301361
-0.344086
-0.37674
-0.399323
-0.413361
-0.419006
-0.416565
-0.408173
-0.394135
-0.375061
-0.352631
-0.327606
-0.300903
-0.273132
-0.245209
-0.218353
-0.192413
-0.168304
-0.146027
-0.126343
-0.108795
-0.093689
-0.0808716
-0.0715637
-0.0634766
-0.0578308
-0.0543213
-0.0518799
-0.0514221
-0.0512695
-0.0523376
-0.0541687
-0.0549316
-0.0570679
-0.0585938
-0.0602722
-0.0621033
-0.0636292
-0.0642395
-0.0648499
-0.0648499
-0.0643921
-0.0636292
-0.0621033
-0.06073
-0.0596619
-0.0578308
-0.0558472
-0.0543213
-0.0518799
-0.0500488
-0.0486755
-0.0466919
-0.0453186
-0.0447083
-0.0431824
-0.0431824
-0.0427246
-0.0422668
-0.0422668
-0.0416565
-0.0415039
-0.0413513
-0.040741
-0.0404358
-0.0396729
-0.0390625
-0.0378418
-0.0361633
-0.0350952
-0.0337219
-0.032196
-0.0308228
-0.0294495
-0.0283813
-0.0276184
-0.0268555
-0.0259399
-0.025177
-0.0247192
-0.0244141
-0.0238037
-0.0234985
-0.0230408
-0.0227356
-0.0221252
-0.0216675
-0.0210571
-0.0202942
-0.019989
-0.0192261
-0.0192261
-0.0189209
-0.0186157
-0.0187683
-0.0189209
-0.0189209
-0.0189209
-0.0183105
-0.0180054
-0.0167847
-0.0160217
-0.0149536
-0.0135803
-0.0120544
-0.0105286
-0.0088501
-0.00717163
-0.00534058
-0.00396729
-0.00228882
-0.000762939
0.000915527
0.00167847
0.00274658
0.0038147
0.00366211
0.00442505
0.00442505
0.00457764
0.00442505
0.00427246
0.00366211
0.00411987
0.00411987
0.00411987
0.00442505
0.00488281
0.00518799
0.00579834
0.00656128
0.00732422
0.00793457
0.00930786
0.010376
0.0114441
0.012207
0.0134277
0.0149536
0.0157166
0.0169373
0.018158
0.0193787
0.0205994
0.0222778
0.0233459
0.0244141
0.0254822
0.0271606
0.027771
0.0288391
0.0291443
0.0294495
0.0299072
0.0297546
0.0297546
0.0297546
0.0294495
0.0294495
0.0300598
0.0306702
0.0309753
0.032196
0.0331116
0.0346375
0.0367737
0.0386047
0.0405884
0.0430298
0.0462341
0.0482178
0.0508118
0.0534058
0.055542
0.057373
0.0587463
0.0601196
0.0613403
0.0624084
0.0634766
0.0640869
0.065155
0.0657654
0.0662231
0.0671387
0.067749
0.068512
0.0692749
0.0701904
0.071106
0.0717163
0.0726318
0.0732422
0.0737
0.0740051
0.0741577
0.0747681
0.0744629
0.0750732
0.0753784
0.075531
0.0756836
0.075531
0.0761414
0.0767517
0.0769043
0.0776672
0.0784302
0.0788879
0.0799561
0.0808716
0.0819397
0.0827026
0.0834656
0.0846863
0.0849915
0.0857544
0.0865173
0.0871277
0.087738
0.0886536
0.0892639
0.0895691
0.0907898
0.0906372
0.091095
0.091095
0.0909424
0.0907898
0.0909424
0.0897217
0.0889587
0.0874329
0.0857544
0.0840759
0.0810242
0.0791931
0.0762939
0.0735474
0.070343
0.0666809
0.0637817
0.0598145
0.0564575
0.0527954
0.0494385
0.0454712
0.0422668
0.0389099
0.0350952
0.0312805
0.0276184
0.0233459
0.0186157
0.0141907
0.00976562
0.00518799
0.00106812
-0.00305176
-0.00671387
-0.0108337
-0.0141907
-0.017395
-0.020752
-0.0236511
-0.0257874
-0.0280762
-0.0299072
-0.0317383
-0.0335693
-0.0344849
-0.0363159
-0.0379944
-0.0393677
-0.0411987
-0.0430298
-0.0450134
-0.0474548
-0.0495911
-0.0517273
-0.0537109
-0.0553894
-0.0579834
-0.0593567
-0.0610352
-0.0619507
-0.063324
-0.0643921
-0.0650024
-0.0654602
-0.0666809
-0.0666809
-0.0669861
-0.0675964
-0.0680542
-0.0688171
-0.0691223
-0.0697327
-0.0701904
-0.0704956
-0.0706482
-0.0706482
-0.0701904
-0.0700378
-0.0688171
-0.0682068
-0.0669861
-0.0660706
-0.0646973
-0.0642395
-0.0631714
-0.0624084
-0.0621033
-0.0614929
-0.0613403
-0.0617981
-0.0619507
-0.062561
-0.0628662
-0.0634766
-0.0639343
-0.0642395
-0.0643921
-0.0642395
-0.0640869
-0.0639343
-0.063324
-0.0631714
-0.0624084
-0.0616455
-0.0608826
-0.0596619
-0.0587463
-0.057373
-0.0561523
-0.0546265
-0.0532532
-0.0520325
-0.0508118
-0.0494385
-0.0480652
-0.0468445
-0.0453186
-0.0447083
-0.043335
-0.0430298
-0.042572
-0.0418091
-0.0408936
-0.0405884
-0.0401306
-0.0393677
-0.0386047
-0.0384521
-0.0379944
-0.0378418
-0.037384
-0.0367737
-0.0366211
-0.0358582
-0.0352478
-0.0340271
-0.0326538
-0.0312805
-0.0297546
-0.0279236
-0.0256348
-0.0239563
-0.0222778
-0.0204468
-0.0192261
-0.0175476
-0.0167847
-0.0161743
-0.0157166
-0.0154114
-0.0160217
-0.0158691
-0.0169373
-0.0177002
-0.0183105
-0.0189209
-0.0195312
-0.0202942
-0.0201416
-0.019989
-0.0193787
-0.0187683
-0.0175476
-0.0163269
-0.0149536
-0.0144958
-0.0137329
-0.0128174
-0.012207
-0.0117493
-0.0114441
-0.0112915
-0.0108337
-0.0105286
-0.0105286
-0.010376
-0.0105286
-0.0108337
-0.0117493
-0.0120544
-0.0128174
-0.0134277
-0.0140381
-0.0149536
-0.015564
-0.0163269
-0.0166321
-0.0175476
-0.0178528
-0.0183105
-0.0189209
-0.0195312
-0.0195312
-0.0198364
-0.0192261
-0.0190735
-0.0186157
-0.0177002
-0.0164795
-0.0158691
-0.0143433
-0.01297
-0.0120544
-0.0114441
-0.0106812
-0.0106812
-0.0108337
-0.0115967
-0.0120544
-0.0128174
-0.0140381
-0.0149536
-0.0160217
-0.0175476
-0.0186157
-0.0198364
-0.020752
-0.0218201
-0.0228882
-0.0231934
-0.0239563
-0.0238037
-0.0239563
-0.0239563
-0.0231934
-0.0233459
-0.0227356
-0.0221252
-0.0219727
-0.0215149
-0.0222778
-0.0221252
-0.0224304
-0.0224304
-0.0231934
-0.0239563
-0.0239563
-0.0241089
-0.0245667
-0.0245667
-0.0239563
-0.0234985
-0.0231934
-0.0224304
-0.0216675
-0.0205994
-0.0193787
-0.0183105
-0.0170898
-0.0163269
-0.0149536
-0.0143433
-0.01297
-0.0117493
-0.0102234
-0.00854492
-0.00717163
-0.00534058
-0.00335693
-0.000762939
0.00228882
0.00518799
0.0088501
0.0117493
0.0151062
0.0183105
0.0216675
0.0248718
0.0276184
0.0306702
0.0335693
0.0361633
0.0392151
0.0416565
0.0448608
0.0480652
0.0517273
0.0547791
0.0579834
0.0611877
0.0643921
0.0672913
0.0698853
0.072937
0.0758362
0.0784302
0.0808716
0.0836182
0.0857544
0.0871277
0.0889587
0.0901794
0.091095
0.0923157
0.0933838
0.0941467
0.0947571
0.09552
0.0961304
0.0959778
0.0961304
0.09552
0.0946045
0.0932312
0.0912476
0.0889587
0.0869751
0.0837708
0.0804138
0.0764465
0.0720215
0.0671387
0.0622559
0.0564575
0.050354
0.0437927
0.0372314
0.0302124
0.0227356
0.0154114
0.00793457
0.000762939
-0.00640869
-0.0144958
-0.0216675
-0.0292969
-0.0370789
-0.0448608
-0.0526428
-0.0602722
-0.067749
-0.0744629
-0.0805664
-0.0866699
-0.0914001
-0.0961304
-0.0996399
-0.103149
-0.105591
-0.107727
-0.1091
-0.109863
-0.110626
-0.110321
-0.109863
-0.108948
-0.10849
-0.107574
-0.107422
-0.107117
-0.106812
-0.106659
-0.106659
-0.106354
-0.106354
-0.105743
-0.106049
-0.105438
-0.10498
-0.104828
-0.104218
-0.10376
-0.103302
-0.102844
-0.102386
-0.102234
-0.102081
-0.101929
-0.101929
-0.102234
-0.101929
-0.101929
-0.101318
-0.101318
-0.100098
-0.0994873
-0.098114
-0.0964355
-0.0944519
-0.0926208
-0.0898743
-0.0871277
-0.0842285
-0.0819397
-0.0793457
-0.0776672
-0.0752258
-0.0738525
-0.0718689
-0.0708008
-0.0697327
-0.0692749
-0.0692749
-0.0700378
-0.0714111
-0.0737
-0.0767517
-0.0799561
-0.0837708
-0.0874329
-0.0915527
-0.0961304
-0.0996399
-0.103607
-0.106812
-0.109406
-0.110474
-0.110474
-0.109253
-0.106506
-0.101471
-0.0947571
-0.0849915
-0.0726318
-0.0566101
-0.0367737
-0.0126648
0.0157166
0.0482178
0.0852966
0.126648
0.172119
0.221405
0.274353
0.331116
0.390625
0.452576
0.515747
0.57785
0.638275
0.695038
0.745697
0.7901
0.825806
0.852203
0.868988
0.875854
0.87265
0.859222
0.835419
0.801086
0.756989
0.702667
0.63858
0.567017
0.488434
0.40451
0.316772
0.226898
0.137634
0.0498962
-0.0335693
-0.11261
-0.184784
-0.249023
-0.30426
-0.350647
-0.386505
-0.413208
-0.43045
-0.439453
-0.440216
-0.43457
-0.422821
-0.405426
-0.384369
-0.360107
-0.333252
-0.305634
-0.276794
-0.249176
-0.222168
-0.196228
-0.172577
-0.150604
-0.131378
-0.114288
-0.0997925
-0.087738
-0.0784302
-0.0708008
-0.0656128
-0.0621033
-0.0605774
-0.0602722
-0.0604248
-0.0621033
-0.0640869
-0.0666809
-0.0689697
-0.0717163
-0.0741577
-0.0764465
-0.078125
-0.0790405
-0.0798035
-0.0799561
-0.0793457
-0.0787354
-0.0770569
-0.0753784
-0.072937
-0.070343
-0.0682068
-0.0654602
-0.0637817
-0.0616455
-0.0596619
-0.058136
-0.0566101
-0.0553894
-0.0543213
-0.0541687
-0.0531006
-0.0524902
-0.0524902
-0.0518799
-0.0515747
-0.0511169
-0.0505066
-0.0498962
-0.0494385
-0.0491333
-0.0480652
-0.0473022
-0.0468445
-0.0460815
-0.0448608
-0.0440979
-0.0436401
-0.042572
-0.0418091
-0.0418091
-0.0410461
-0.0401306
-0.0392151
-0.0379944
-0.0376892
-0.0361633
-0.0357056
-0.0350952
-0.0344849
-0.0340271
-0.0334167
-0.0328064
-0.032196
-0.0314331
-0.0309753
-0.0305176
-0.0302124
-0.0302124
-0.0302124
-0.0299072
-0.0300598
-0.0294495
-0.0285339
-0.0274658
-0.0259399
-0.0242615
-0.0221252
-0.0204468
-0.0190735
-0.0169373
-0.0157166
-0.0140381
-0.0131226
-0.0115967
-0.0105286
-0.0106812
-0.0102234
-0.00991821
-0.00976562
-0.0100708
-0.0100708
-0.00976562
-0.00991821
-0.00991821
-0.00930786
-0.00915527
-0.00854492
-0.00808716
-0.00732422
-0.00656128
-0.00610352
-0.00564575
-0.00488281
-0.00442505
-0.00366211
-0.00350952
-0.00274658
-0.00228882
-0.00198364
-0.00152588
-0.000305176
0.000305176
0.00106812
0.00152588
0.00289917
0.0038147
0.00534058
0.00640869
0.00808716
0.00976562
0.0111389
0.0125122
0.0137329
0.0151062
0.0151062
0.0161743
0.0160217
0.0164795
0.0161743
0.0166321
0.0167847
0.0170898
0.0178528
0.0187683
0.0198364
0.0210571
0.022583
0.0248718
0.0267029
0.0288391
0.0312805
0.0335693
0.0363159
0.0390625
0.0404358
0.0431824
0.0454712
0.0469971
0.0488281
0.0505066
0.0523376
0.0534058
0.0544739
0.0553894
0.0563049
0.0567627
0.0567627
0.0566101
0.0569153
0.0567627
0.0569153
0.0572205
0.0572205
0.0572205
0.0572205
0.0570679
0.0569153
0.0566101
0.0567627
0.0567627
0.0572205
0.0576782
0.0579834
0.0588989
0.059967
0.0614929
0.0627136
0.0642395
0.0662231
0.0682068
0.0694275
0.0717163
0.0735474
0.0753784
0.0767517
0.0778198
0.0784302
0.0791931
0.0798035
0.0798035
0.0796509
0.0791931
0.0787354
0.0784302
0.0778198
0.0775146
0.0773621
0.0769043
0.0764465
0.0759888
0.0749207
0.0741577
0.0730896
0.0715637
0.0697327
0.0680542
0.0660706
0.0636292
0.0613403
0.0587463
0.0563049
0.0537109
0.0506592
0.0474548
0.0444031
0.0419617
0.0392151
0.0358582
0.032959
0.0300598
0.0270081
0.0234985
0.0205994
0.0169373
0.0137329
0.010376
0.00701904
0.00320435
0.000152588
-0.00335693
-0.00671387
-0.0100708
-0.0131226
-0.0158691
-0.0189209
-0.0219727
-0.0247192
-0.0276184
-0.030365
-0.032959
-0.0357056
-0.038147
-0.0410461
-0.0439453
-0.0466919
-0.0495911
-0.0524902
-0.0553894
-0.0576782
-0.0602722
-0.062561
-0.0645447
-0.0663757
-0.067749
-0.0691223
-0.0695801
-0.0700378
-0.0704956
-0.0706482
-0.070343
-0.070343
-0.0701904
-0.0701904
-0.070343
-0.071106
-0.071106
-0.0718689
-0.0723267
-0.0732422
-0.0741577
-0.0750732
-0.0764465
-0.0773621
-0.0782776
-0.0788879
-0.0796509
-0.0799561
-0.0804138
-0.0805664
-0.0810242
-0.0814819
-0.0811768
-0.0813293
-0.0813293
-0.0813293
-0.0811768
-0.0813293
-0.080719
-0.0808716
-0.0805664
-0.0804138
-0.0796509
-0.0796509
-0.0785828
-0.0779724
-0.0770569
-0.0759888
-0.0747681
-0.0735474
-0.0720215
-0.0706482
-0.0689697
-0.0679016
-0.0663757
-0.0654602
-0.0648499
-0.0643921
-0.0634766
-0.0634766
-0.0630188
-0.0624084
-0.0617981
-0.0610352
-0.059967
-0.0588989
-0.0575256
-0.0556946
-0.0543213
-0.0527954
-0.0508118
-0.0494385
-0.0479126
-0.0462341
-0.0453186
-0.0442505
-0.0430298
-0.0424194
-0.0422668
-0.0416565
-0.0410461
-0.0404358
-0.039978
-0.0398254
-0.0392151
-0.0389099
-0.038147
-0.0378418
-0.037384
-0.0372314
-0.0361633
-0.0360107
-0.0352478
-0.0346375
-0.0341797
-0.0340271
-0.0332642
-0.0326538
-0.0326538
-0.0325012
-0.032196
-0.0320435
-0.0320435
-0.0317383
-0.0311279
-0.0306702
-0.0300598
-0.0291443
-0.0291443
-0.0285339
-0.0283813
-0.027771
-0.0274658
-0.0271606
-0.0267029
-0.0265503
-0.0263977
-0.0270081
-0.0268555
-0.0276184
-0.0282288
-0.0288391
-0.0296021
-0.0300598
-0.0309753
-0.0312805
-0.0315857
-0.0320435
-0.032196
-0.0323486
-0.0318909
-0.032196
-0.0320435
-0.0317383
-0.0318909
-0.0315857
-0.0317383
-0.0320435
-0.032196
-0.0325012
-0.032959
-0.0331116
-0.0331116
-0.032959
-0.0323486
-0.0317383
-0.0312805
-0.0302124
-0.0297546
-0.0288391
-0.0279236
-0.0271606
-0.0263977
-0.0256348
-0.0248718
-0.0244141
-0.0238037
-0.0233459
-0.0231934
-0.0234985
-0.0231934
-0.0231934
-0.0231934
-0.022583
-0.0224304
-0.0218201
-0.0215149
-0.0210571
-0.0209045
-0.0205994
-0.0205994
-0.0205994
-0.0212097
-0.0215149
-0.0216675
-0.0222778
-0.0233459
-0.0242615
-0.0254822
-0.0262451
-0.0274658
-0.0282288
-0.0289917
-0.0296021
-0.0296021
-0.0302124
-0.030365
-0.0302124
-0.0300598
-0.0292969
-0.0288391
-0.0279236
-0.0271606
-0.0257874
-0.0245667
-0.0231934
-0.022583
-0.020752
-0.0190735
-0.0172424
-0.0157166
-0.0132751
-0.0105286
-0.00823975
-0.00518799
-0.00198364
0.00137329
0.00473022
0.00854492
0.0125122
0.0164795
0.020752
0.025177
0.0296021
0.0335693
0.0375366
0.039978
0.042572
0.0448608
0.0466919
0.0482178
0.0492859
0.0508118
0.0521851
0.0532532
0.0544739
0.055542
0.0564575
0.057373
0.0587463
0.0602722
0.0611877
0.062561
0.0646973
0.0669861
0.0694275
0.0724792
0.0753784
0.0779724
0.0813293
0.0842285
0.0869751
0.0897217
0.0921631
0.0949097
0.0968933
0.0984192
0.100098
0.100861
0.101471
0.101318
0.100555
0.0994873
0.0978088
0.0953674
0.0921631
0.0883484
0.0840759
0.0794983
0.0747681
0.0695801
0.0646973
0.0587463
0.0531006
0.0469971
0.0410461
0.0349426
0.0289917
0.022583
0.0161743
0.0102234
0.0038147
-0.00213623
-0.00854492
-0.0146484
-0.0213623
-0.027771
-0.0349426
-0.0418091
-0.0483704
-0.0547791
-0.06073
-0.0663757
-0.0715637
-0.0758362
-0.0794983
-0.08255
-0.0848389
-0.0865173
-0.0878906
-0.0889587
-0.0897217
-0.0901794
-0.0904846
-0.091095
-0.0912476
-0.0914001
-0.0920105
-0.0924683
-0.0926208
-0.0933838
-0.0938416
-0.0939941
-0.0942993
-0.0942993
-0.0939941
-0.0939941
-0.0933838
-0.0932312
-0.0926208
-0.0927734
-0.0921631
-0.0918579
-0.0915527
-0.0914001
-0.0907898
-0.090332
-0.0898743
-0.0897217
-0.0891113
-0.0886536
-0.088501
-0.0883484
-0.0878906
-0.0872803
-0.0868225
-0.085907
-0.0848389
-0.0836182
-0.0822449
-0.0811768
-0.0798035
-0.0788879
-0.0776672
-0.0769043
-0.0753784
-0.0744629
-0.0735474
-0.0730896
-0.0727844
-0.0723267
-0.0723267
-0.072937
-0.0738525
-0.0752258
-0.0770569
-0.0793457
-0.0822449
-0.0849915
-0.0883484
-0.0917053
-0.0946045
-0.0976562
-0.100708
-0.102844
-0.104218
-0.10437
-0.104065
-0.101929
-0.0990295
-0.093689
-0.0860596
-0.0756836
-0.0627136
-0.0453186
-0.0245667
0.0012207
0.0311279
0.0643921
0.102539
0.144806
0.190582
0.240173
0.293884
0.350647
0.410156
0.47226
0.53421
0.596619
0.656128
0.711975
0.762177
0.804901
0.838776
0.8638
0.879364
0.884552
0.879974
0.864868
0.839386
0.803833
0.757446
0.702057
0.636597
0.563354
0.482788
0.397339
0.308075
0.217133
0.126343
0.0384521
-0.045929
-0.124817
-0.196533
-0.26001
-0.314178
-0.359192
-0.393524
-0.418549
-0.433807
-0.441284
-0.440674
-0.433807
-0.420532
-0.403137
-0.381165
-0.355835
-0.328979
-0.30014
-0.271759
-0.243378
-0.216064
-0.190277
-0.165558
-0.143585
-0.124207
-0.106964
-0.0927734
-0.0811768
-0.0721741
-0.065918
-0.0614929
-0.0588989
-0.0582886
-0.0592041
-0.06073
-0.0631714
-0.0665283
-0.0701904
-0.0737
-0.0776672
-0.0805664
-0.0836182
-0.0863647
-0.0886536
-0.0900269
-0.0912476
-0.0920105
-0.0918579
-0.0917053
-0.0914001
-0.0901794
-0.0888062
-0.087738
-0.0860596
-0.0849915
-0.0839233
-0.0830078
-0.0823975
-0.0817871
-0.0814819
-0.0808716
-0.0804138
-0.0801086
-0.0801086
-0.0801086
-0.0798035
-0.0791931
-0.0787354
-0.0785828
-0.0787354
-0.0787354
-0.0784302
-0.0782776
-0.078125
-0.0778198
-0.0770569
-0.0764465
-0.0759888
-0.0749207
-0.0738525
-0.0727844
-0.0715637
-0.0701904
-0.0688171
-0.0665283
-0.065155
-0.0639343
-0.0617981
-0.059967
-0.0585938
-0.0572205
-0.0553894
-0.0537109
-0.0524902
-0.0511169
-0.0502014
-0.0494385
-0.0494385
-0.0489807
-0.0488281
-0.0488281
-0.0491333
-0.0486755
-0.04776
-0.0474548
-0.0462341
-0.0448608
-0.0434875
-0.0418091
-0.0404358
-0.0389099
-0.0372314
-0.035553
-0.0343323
-0.0332642
-0.0315857
-0.0306702
-0.0292969
-0.0285339
-0.0271606
-0.0262451
-0.0257874
-0.0248718
-0.0234985
-0.0227356
-0.0221252
-0.0212097
-0.0204468
-0.0192261
-0.0187683
-0.0175476
-0.0170898
-0.0161743
-0.0157166
-0.015564
-0.0149536
-0.0146484
-0.0141907
-0.0140381
-0.0140381
-0.0137329
-0.0138855
-0.0138855
-0.0138855
-0.0137329
-0.0134277
-0.0126648
-0.0119019
-0.0109863
-0.0102234
-0.00900269
-0.00823975
-0.00686646
-0.00610352
-0.00473022
-0.00396729
-0.00244141
-0.0012207
0.000305176
0.00213623
0.00396729
0.00610352
0.00839233
0.0111389
0.0140381
0.0167847
0.0202942
0.0230408
0.0260925
0.0288391
0.0315857
0.0338745
0.0357056
0.037384
0.0384521
0.0390625
0.0390625
0.0393677
0.0389099
0.0382996
0.0375366
0.0372314
0.0363159
0.0358582
0.0354004
0.0350952
0.0352478
0.0354004
0.0354004
0.0354004
0.0358582
0.0366211
0.037384
0.038147
0.0392151
0.0395203
0.0396729
0.0415039
0.0418091
0.0430298
0.0434875
0.0445557
0.0454712
0.0463867
0.0473022
0.0480652
0.0488281
0.0495911
0.0506592
0.0512695
0.0520325
0.0526428
0.052948
0.0537109
0.0538635
0.0541687
0.0538635
0.0535583
0.0537109
0.0532532
0.0524902
0.0524902
0.0523376
0.0526428
0.0527954
0.0531006
0.0534058
0.0540161
0.0547791
0.0550842
0.055542
0.0559998
0.0561523
0.0558472
0.0549316
0.0543213
0.0531006
0.0517273
0.0498962
0.0486755
0.0466919
0.0447083
0.0431824
0.0411987
0.0395203
0.0375366
0.0357056
0.0335693
0.0317383
0.0297546
0.0276184
0.0253296
0.0227356
0.0201416
0.0172424
0.0143433
0.0108337
0.00732422
0.0038147
0.000152588
-0.00396729
-0.00762939
-0.0114441
-0.015564
-0.0190735
-0.0227356
-0.0257874
-0.0292969
-0.0326538
-0.0360107
-0.0389099
-0.0419617
-0.045166
-0.04776
-0.0512695
-0.0544739
-0.0576782
-0.0605774
-0.0631714
-0.0657654
-0.067749
-0.0697327
-0.0714111
-0.0723267
-0.0724792
-0.0735474
-0.0730896
-0.0735474
-0.0737
-0.0738525
-0.0741577
-0.0743103
-0.0746155
-0.0752258
-0.075531
-0.0756836
-0.0761414
-0.0769043
-0.0779724
-0.0785828
-0.0796509
-0.080719
-0.0814819
-0.08255
-0.0836182
-0.0839233
-0.0842285
-0.0848389
-0.0848389
-0.0840759
-0.0836182
-0.0830078
-0.0822449
-0.0814819
-0.0808716
-0.0804138
-0.0804138
-0.0808716
-0.0808716
-0.0811768
-0.0816345
-0.0814819
-0.0820923
-0.0823975
-0.0827026
-0.08255
-0.0828552
-0.08255
-0.0822449
-0.0823975
-0.08255
-0.08255
-0.08255
-0.08255
-0.0819397
-0.0811768
-0.080719
-0.0799561
-0.0785828
-0.0775146
-0.0761414
-0.0749207
-0.0737
-0.0726318
-0.0714111
-0.0700378
-0.0682068
-0.0671387
-0.0656128
-0.0642395
-0.0631714
-0.0616455
-0.06073
-0.0598145
-0.0595093
-0.0590515
-0.0587463
-0.0585938
-0.0584412
-0.0587463
-0.0584412
-0.0579834
-0.0576782
-0.0575256
-0.0569153
-0.0558472
-0.0553894
-0.0544739
-0.0534058
-0.0520325
-0.0512695
-0.050354
-0.0497437
-0.0495911
-0.0497437
-0.0497437
-0.0505066
-0.0509644
-0.0518799
-0.0524902
-0.0531006
-0.0541687
-0.0543213
-0.0546265
-0.0550842
-0.0549316
-0.0547791
-0.0549316
-0.0544739
-0.0538635
-0.0538635
-0.0534058
-0.0523376
-0.0520325
-0.0511169
-0.0509644
-0.0508118
-0.0502014
-0.0500488
-0.050354
-0.0505066
-0.0506592
-0.0512695
-0.0515747
-0.0521851
-0.0527954
-0.0535583
-0.0541687
-0.0553894
-0.0559998
-0.0569153
-0.0575256
-0.0590515
-0.0601196
-0.0610352
-0.062561
-0.063324
-0.0643921
-0.0657654
-0.065918
-0.0666809
-0.0665283
-0.0665283
-0.0662231
-0.0653076
-0.0643921
-0.0630188
-0.0619507
-0.0608826
-0.0596619
-0.0592041
-0.0584412
-0.0578308
-0.0579834
-0.058136
-0.0584412
-0.0595093
-0.0601196
-0.0611877
-0.0617981
-0.0628662
-0.0639343
-0.0648499
-0.0654602
-0.0662231
-0.0669861
-0.0669861
-0.0674438
-0.0671387
-0.0668335
-0.0663757
-0.0656128
-0.0643921
-0.0637817
-0.0631714
-0.0621033
-0.0622559
-0.0622559
-0.0621033
-0.062561
-0.0628662
-0.0631714
-0.0631714
-0.0630188
-0.0628662
-0.0624084
-0.0621033
-0.0613403
-0.0608826
-0.0605774
-0.0601196
-0.0596619
-0.0590515
-0.0593567
-0.0584412
-0.0584412
-0.0584412
-0.0579834
-0.0572205
-0.0567627
-0.055542
-0.0546265
-0.0527954
-0.0511169
-0.0492859
-0.0468445
-0.0444031
-0.0418091
-0.0390625
-0.0361633
-0.0338745
-0.0309753
-0.0276184
-0.0247192
-0.0210571
-0.0180054
-0.0151062
-0.012207
-0.00930786
-0.00656128
-0.00396729
-0.00137329
0.000915527
0.00305176
0.00488281
0.00686646
0.00854492
0.0105286
0.0119019
0.0138855
0.0160217
0.0177002
0.0204468
0.022583
0.0248718
0.0273132
0.0299072
0.0328064
0.0357056
0.0393677
0.042572
0.0466919
0.0508118
0.0556946
0.0602722
0.0648499
0.0695801
0.0738525
0.0779724
0.0811768
0.0837708
0.0857544
0.0868225
0.0862122
0.0856018
0.083313
0.0801086
0.0764465
0.0718689
0.0668335
0.0616455
0.0561523
0.0505066
0.0454712
0.0396729
0.0352478
0.0296021
0.0244141
0.0189209
0.0140381
0.00839233
0.00350952
-0.00167847
-0.00656128
-0.0119019
-0.0177002
-0.0231934
-0.0289917
-0.0354004
-0.0413513
-0.0474548
-0.0534058
-0.059967
-0.0657654
-0.0715637
-0.0764465
-0.0814819
-0.0856018
-0.0900269
-0.0933838
-0.0961304
-0.0982666
-0.10025
-0.102234
-0.102844
-0.103912
-0.104523
-0.105286
-0.105591
-0.105591
-0.105743
-0.106049
-0.106049
-0.105896
-0.105896
-0.10498
-0.10498
-0.104828
-0.10437
-0.104218
-0.104065
-0.104218
-0.104675
-0.105438
-0.106354
-0.106964
-0.108032
-0.108643
-0.109253
-0.109253
-0.110016
-0.109711
-0.109558
-0.109558
-0.108948
-0.108185
-0.107117
-0.106201
-0.104828
-0.10376
-0.102234
-0.101013
-0.0994873
-0.098114
-0.0971985
-0.0953674
-0.0944519
-0.0930786
-0.0921631
-0.0907898
-0.0897217
-0.0889587
-0.088501
-0.087738
-0.0875854
-0.0875854
-0.088501
-0.0897217
-0.091095
-0.0935364
-0.0965881
-0.0990295
-0.102386
-0.105743
-0.1091
-0.111694
-0.114136
-0.115814
-0.116272
-0.116119
-0.114136
-0.110321
-0.105591
-0.0987244
-0.0889587
-0.0767517
-0.0610352
-0.0424194
-0.0193787
0.00671387
0.037384
0.071106
0.108795
0.149841
0.194092
0.241241
0.291901
0.345001
0.400848
0.458221
0.5159
0.57251
0.625916
0.674438
0.717163
0.752258
0.778961
0.796204
0.804596
0.803833
0.794067
0.775146
0.747223
0.710144
0.664368
0.610809
0.548859
0.480499
0.406342
0.328217
0.247955
0.166931
0.0868225
0.00991821
-0.0628662
-0.130005
-0.190887
-0.244598
-0.29007
-0.327606
-0.357056
-0.378723
-0.392914
-0.401306
-0.402527
-0.398254
-0.389862
-0.377655
-0.361938
-0.343933
-0.323944
-0.302429
-0.280151
-0.257568
-0.235291
-0.213776
-0.192871
-0.173798
-0.156097
-0.139618
-0.125427
-0.112915
-0.102844
-0.0942993
-0.087738
-0.0830078
-0.0804138
-0.0784302
-0.0775146
-0.0776672
-0.0775146
-0.0782776
-0.0791931
-0.0798035
-0.0804138
-0.0804138
-0.0810242
-0.0808716
-0.0804138
-0.0794983
-0.0787354
-0.0782776
-0.0770569
-0.0761414
-0.0749207
-0.0732422
-0.0724792
-0.071106
-0.0700378
-0.0689697
-0.0674438
-0.0665283
-0.0654602
-0.0643921
-0.0636292
-0.062561
-0.0611877
-0.059967
-0.0588989
-0.0576782
-0.0564575
-0.0553894
-0.0537109
-0.052948
-0.0520325
-0.0517273
-0.0511169
-0.0505066
-0.0505066
-0.0497437
-0.0497437
-0.0489807
-0.0483704
-0.04776
-0.0469971
-0.0460815
-0.0447083
-0.0434875
-0.0419617
-0.040741
-0.0398254
-0.0382996
-0.0370789
-0.0360107
-0.0341797
-0.0335693
-0.0331116
-0.0326538
-0.0320435
-0.0311279
-0.0309753
-0.0302124
-0.0297546
-0.0289917
-0.0285339
-0.0274658
-0.0263977
-0.0256348
-0.0242615
-0.0236511
-0.0227356
-0.0221252
-0.0212097
-0.020752
-0.0202942
-0.019989
-0.0196838
-0.0193787
-0.0190735
-0.0192261
-0.0190735
-0.0190735
-0.0193787
-0.0190735
-0.0189209
-0.0187683
-0.0184631
-0.0184631
-0.0183105
-0.0180054
-0.018158
-0.0178528
-0.0178528
-0.0169373
-0.0170898
-0.0166321
-0.0166321
-0.0166321
-0.0157166
-0.0152588
-0.014801
-0.0137329
-0.0128174
-0.0115967
-0.00976562
-0.00793457
-0.00656128
-0.00411987
-0.00213623
0.0
0.00198364
0.00335693
0.00473022
0.00595093
0.00717163
0.00839233
0.00915527
0.0100708
0.0106812
0.0115967
0.0126648
0.0131226
0.0132751
0.0144958
0.0152588
0.0164795
0.0172424
0.0187683
0.019989
0.0212097
0.0224304
0.0233459
0.0247192
0.0259399
0.0268555
0.0271606
0.0276184
0.0279236
0.0279236
0.0283813
0.0286865
0.0286865
0.0292969
0.0296021
0.0309753
0.0314331
0.0325012
0.0335693
0.0349426
0.0358582
0.037384
0.0384521
0.0398254
0.0402832
0.0415039
0.0424194
0.0431824
0.0436401
0.0444031
0.0448608
0.0450134
0.0456238
0.0460815
0.0462341
0.0469971
0.0473022
0.0479126
0.0483704
0.0488281
0.0491333
0.0494385
0.0495911
0.0500488
0.0505066
0.0505066
0.050354
0.050354
0.0505066
0.050354
0.0502014
0.0498962
0.0497437
0.0494385
0.0489807
0.0488281
0.0485229
0.0480652
0.0480652
0.0474548
0.0465393
0.0463867
0.0457764
0.045166
0.0442505
0.0439453
0.0427246
0.0422668
0.0415039
0.0410461
0.0405884
0.0405884
0.0405884
0.0408936
0.0415039
0.042572
0.043335
0.0444031
0.0456238
0.0465393
0.0474548
0.0485229
0.0486755
0.0489807
0.0486755
0.0483704
0.0468445
0.0450134
0.0427246
0.039978
0.0372314
0.0343323
0.0305176
0.0271606
0.0236511
0.0202942
0.017395
0.0143433
0.0111389
0.00778198
0.00518799
0.00228882
-0.000457764
-0.00305176
-0.00595093
-0.00854492
-0.0115967
-0.0141907
-0.0170898
-0.019989
-0.0231934
-0.0257874
-0.0288391
-0.0309753
-0.0334167
-0.0349426
-0.0369263
-0.0390625
-0.0405884
-0.0418091
-0.0437927
-0.045166
-0.0468445
-0.0485229
-0.0494385
-0.0509644
-0.0521851
-0.0537109
-0.0550842
-0.0566101
-0.058136
-0.0592041
-0.0598145
-0.06073
-0.0608826
-0.0611877
-0.0605774
-0.0601196
-0.0595093
-0.0588989
-0.0576782
-0.0567627
-0.0550842
-0.0544739
-0.0531006
-0.0521851
-0.0515747
-0.0508118
-0.0500488
-0.0495911
-0.0486755
-0.0483704
-0.0471497
-0.0465393
-0.0453186
-0.0442505
-0.0428772
-0.0418091
-0.0408936
-0.0398254
-0.0382996
-0.0382996
-0.0375366
-0.0372314
-0.0367737
-0.0361633
-0.0361633
-0.0363159
-0.0363159
-0.0363159
-0.0364685
-0.0367737
-0.0364685
-0.0361633
-0.0363159
-0.0357056
-0.0346375
-0.0340271
-0.032959
-0.0318909
-0.0305176
-0.0297546
-0.0280762
-0.0271606
-0.0254822
-0.0242615
-0.0231934
-0.0215149
-0.019989
-0.0186157
-0.0169373
-0.0157166
-0.0137329
-0.012207
-0.0114441
-0.00976562
-0.00839233
-0.00732422
-0.00610352
-0.00518799
-0.00396729
-0.00335693
-0.00289917
-0.00259399
-0.00228882
-0.00213623
-0.00228882
-0.00259399
-0.00305176
-0.00335693
-0.00350952
-0.00411987
-0.00427246
-0.00427246
-0.00442505
-0.00366211
-0.00350952
-0.00289917
-0.00198364
-0.00137329
-0.000610352
0.000762939
0.00167847
0.00289917
0.00366211
0.0038147
0.00457764
0.00473022
0.00488281
0.00488281
0.00488281
0.00488281
0.00473022
0.00427246
0.00442505
0.00427246
0.00411987
0.00411987
0.00442505
0.00427246
0.00411987
0.00457764
0.00411987
0.00427246
0.00366211
0.00366211
0.00320435
0.00259399
0.00183105
0.00106812
0.000152588
-0.000610352
-0.0012207
-0.00137329
-0.00228882
-0.00228882
-0.00244141
-0.00274658
-0.00244141
-0.00228882
-0.00213623
-0.00244141
-0.00213623
-0.00183105
-0.00183105
-0.00228882
-0.00213623
-0.00244141
-0.00305176
-0.00350952
-0.00366211
-0.00396729
-0.00396729
-0.00473022
-0.00488281
-0.00549316
-0.00534058
-0.00564575
-0.0062561
-0.00671387
-0.00732422
-0.00778198
-0.00823975
-0.00869751
-0.00976562
-0.0105286
-0.0112915
-0.0123596
-0.0135803
-0.0149536
-0.0166321
-0.0178528
-0.0189209
-0.0201416
-0.0210571
-0.0210571
-0.0213623
-0.0213623
-0.020752
-0.0201416
-0.0193787
-0.0183105
-0.0175476
-0.0166321
-0.0163269
-0.0158691
-0.015564
-0.0154114
-0.0144958
-0.0140381
-0.0134277
-0.0128174
-0.012207
-0.012207
-0.0119019
-0.0109863
-0.010376
-0.00961304
-0.00823975
-0.00701904
-0.00595093
-0.00411987
-0.00244141
-0.000457764
0.0012207
0.00289917
0.00473022
0.00640869
0.00854492
0.0106812
0.0126648
0.0152588
0.0177002
0.0202942
0.0231934
0.0259399
0.0289917
0.0325012
0.0350952
0.0384521
0.0404358
0.0430298
0.0454712
0.0474548
0.0497437
0.0512695
0.0524902
0.0540161
0.0553894
0.0564575
0.0578308
0.0596619
0.0610352
0.0631714
0.0656128
0.0680542
0.0714111
0.0747681
0.0785828
0.0827026
0.0869751
0.0909424
0.0953674
0.0997925
0.103455
0.106964
0.110168
0.112762
0.113983
0.115051
0.115051
0.113831
0.112305
0.1091
0.106201
0.103149
0.0991821
0.0950623
0.090332
0.0860596
0.0811768
0.0761414
0.0712585
0.0657654
0.0602722
0.0544739
0.0489807
0.0431824
0.0379944
0.0326538
0.0279236
0.0228882
0.0184631
0.0141907
0.0100708
0.00579834
0.00106812
-0.00305176
-0.00793457
-0.0128174
-0.0184631
-0.0241089
-0.0302124
-0.0361633
-0.0424194
-0.0485229
-0.0547791
-0.0605774
-0.0662231
-0.0714111
-0.0756836
-0.0801086
-0.0831604
-0.0865173
-0.0894165
-0.0914001
-0.0926208
-0.0933838
-0.0938416
-0.093689
-0.0935364
-0.0930786
-0.0923157
-0.0915527
-0.0907898
-0.0898743
-0.0892639
-0.088501
-0.087738
-0.0872803
-0.0865173
-0.085907
-0.0854492
-0.0849915
-0.0836182
-0.0831604
-0.0823975
-0.0819397
-0.0810242
-0.0801086
-0.0793457
-0.0788879
-0.0787354
-0.0785828
-0.078125
-0.0779724
-0.0778198
-0.0773621
-0.0773621
-0.0772095
-0.0765991
-0.0756836
-0.0750732
-0.0737
-0.0726318
-0.0712585
-0.0698853
-0.0680542
-0.0662231
-0.0648499
-0.062561
-0.0613403
-0.0596619
-0.0595093
-0.0590515
-0.0601196
-0.0616455
-0.0639343
-0.0671387
-0.070343
-0.0741577
-0.0787354
-0.0831604
-0.0872803
-0.091095
-0.0941467
-0.0964355
-0.098114
-0.0979614
-0.0968933
-0.0941467
-0.0894165
-0.0830078
-0.0746155
-0.063324
-0.0486755
-0.0309753
-0.00930786
0.0161743
0.0454712
0.0793457
0.116882
0.158081
0.203094
0.25116
0.30304
0.358124
0.415802
0.475464
0.535736
0.59494
0.652466
0.704956
0.751953
0.791168
0.821838
0.843048
0.854645
0.856781
0.848999
0.831604
0.803986
0.767212
0.720978
0.665741
0.601807
0.531006
0.454102
0.372467
0.287781
0.202179
0.117188
0.0346375
-0.0439453
-0.117188
-0.184174
-0.242767
-0.293732
-0.335236
-0.367737
-0.390778
-0.406036
-0.412445
-0.411987
-0.404968
-0.392456
-0.375061
-0.354309
-0.330505
-0.304718
-0.277557
-0.250092
-0.222626
-0.196381
-0.171051
-0.148315
-0.127258
-0.109253
-0.0938416
-0.0808716
-0.0706482
-0.0628662
-0.0567627
-0.052948
-0.0506592
-0.0497437
-0.0497437
-0.0506592
-0.0521851
-0.0540161
-0.0561523
-0.058136
-0.0602722
-0.0617981
-0.0639343
-0.0648499
-0.0663757
-0.0668335
-0.0671387
-0.0668335
-0.0662231
-0.0657654
-0.0646973
-0.063324
-0.0617981
-0.0604248
-0.0585938
-0.0572205
-0.0559998
-0.0541687
-0.0527954
-0.0512695
-0.0497437
-0.0486755
-0.0479126
-0.0473022
-0.0469971
-0.0473022
-0.0473022
-0.0476074
-0.04776
-0.0482178
-0.0482178
-0.0479126
-0.0476074
-0.0469971
-0.045929
-0.0450134
-0.0440979
-0.0427246
-0.0411987
-0.0404358
-0.0386047
-0.0375366
-0.0367737
-0.0357056
-0.0349426
-0.0341797
-0.0338745
-0.0335693
-0.032959
-0.0328064
-0.032196
-0.0314331
-0.0308228
-0.0299072
-0.0286865
-0.0279236
-0.0267029
-0.025177
-0.0241089
-0.0228882
-0.0216675
-0.020752
-0.0196838
-0.0190735
-0.0186157
-0.0184631
-0.0180054
-0.0175476
-0.017395
-0.0177002
-0.0170898
-0.0167847
-0.0161743
-0.015564
-0.0146484
-0.0138855
-0.01297
-0.0114441
-0.0106812
-0.00946045
-0.00869751
-0.00747681
-0.00640869
-0.00595093
-0.00488281
-0.00427246
-0.00274658
-0.00198364
-0.00137329
-0.000610352
0.0
0.000457764
0.0012207
0.00183105
0.00259399
0.00305176
0.00366211
0.0038147
0.0038147
0.00427246
0.00396729
0.00396729
0.00366211
0.00305176
0.00274658
0.00228882
0.00244141
0.00213623
0.00244141
0.00259399
0.00320435
0.00411987
0.00534058
0.00640869
0.00854492
0.00976562
0.0115967
0.0134277
0.0154114
0.0170898
0.0190735
0.0209045
0.0231934
0.0247192
0.0260925
0.0270081
0.0276184
0.0283813
0.0289917
0.0292969
0.0296021
0.0292969
0.0294495
0.0294495
0.0292969
0.0296021
0.0291443
0.0291443
0.0296021
0.0291443
0.0296021
0.0299072
0.0305176
0.0306702
0.0306702
0.0308228
0.0305176
0.0308228
0.0306702
0.0308228
0.0320435
0.032959
0.0343323
0.0364685
0.0387573
0.0410461
0.0437927
0.0465393
0.0494385
0.0518799
0.0544739
0.0569153
0.0592041
0.0608826
0.0628662
0.0640869
0.0656128
0.0668335
0.0679016
0.0694275
0.0701904
0.0709534
0.0717163
0.0721741
0.0727844
0.0733948
0.0735474
0.0740051
0.0738525
0.0738525
0.0743103
0.0741577
0.0740051
0.0740051
0.0741577
0.0741577
0.0740051
0.0740051
0.0738525
0.0735474
0.0735474
0.0740051
0.0743103
0.0747681
0.0746155
0.0746155
0.0749207
0.0749207
0.0747681
0.0743103
0.0738525
0.0730896
0.0721741
0.0706482
0.0691223
0.0668335
0.0639343
0.0617981
0.0584412
0.0549316
0.0518799
0.0482178
0.0445557
0.0411987
0.0378418
0.0344849
0.0308228
0.0268555
0.0228882
0.0192261
0.0149536
0.0105286
0.00640869
0.00213623
-0.00183105
-0.00610352
-0.00976562
-0.0138855
-0.0172424
-0.0202942
-0.0234985
-0.0262451
-0.0288391
-0.0309753
-0.0328064
-0.0343323
-0.0357056
-0.0372314
-0.0376892
-0.0390625
-0.039978
-0.0411987
-0.0427246
-0.0440979
-0.0460815
-0.0483704
-0.050354
-0.0524902
-0.0550842
-0.0564575
-0.0587463
-0.059967
-0.0619507
-0.0630188
-0.0640869
-0.0653076
-0.0660706
-0.0669861
-0.0672913
-0.067749
-0.0679016
-0.0682068
-0.0682068
-0.0683594
-0.068512
-0.068512
-0.0686646
-0.068512
-0.0683594
-0.0682068
-0.0679016
-0.0672913
-0.0665283
-0.0656128
-0.0648499
-0.063324
-0.0627136
-0.0619507
-0.0610352
-0.0602722
-0.0596619
-0.0588989
-0.0584412
-0.0582886
-0.0578308
-0.0575256
-0.0575256
-0.0575256
-0.0578308
-0.058136
-0.0579834
-0.0575256
-0.057373
-0.0563049
-0.055542
-0.0547791
-0.0535583
-0.0523376
-0.0502014
-0.0486755
-0.0468445
-0.0454712
-0.0439453
-0.0427246
-0.0408936
-0.0401306
-0.0390625
-0.0384521
-0.0376892
-0.0363159
-0.0357056
-0.0341797
-0.0334167
-0.0320435
-0.0306702
-0.0296021
-0.0289917
-0.027771
-0.0273132
-0.0265503
-0.0260925
-0.0254822
-0.0253296
-0.0253296
-0.0250244
-0.0254822
-0.0257874
-0.0259399
-0.0267029
-0.0268555
-0.0273132
-0.0270081
-0.0273132
-0.0271606
-0.0262451
-0.0262451
-0.0253296
-0.0245667
-0.0233459
-0.0224304
-0.020752
-0.0202942
-0.0187683
-0.0177002
-0.0169373
-0.0160217
-0.0151062
-0.0144958
-0.0132751
-0.0126648
-0.0123596
-0.0109863
-0.0102234
-0.00930786
-0.00869751
-0.00747681
-0.00686646
-0.0062561
-0.00610352
-0.00549316
-0.00549316
-0.00518799
-0.00534058
-0.00564575
-0.00656128
-0.00778198
-0.00854492
-0.00915527
-0.010376
-0.0111389
-0.012207
-0.0125122
-0.01297
-0.0132751
-0.0132751
-0.0128174
-0.0125122
-0.012207
-0.0119019
-0.0112915
-0.010376
-0.00991821
-0.00976562
-0.0088501
-0.00854492
-0.0088501
-0.00869751
-0.00900269
-0.00946045
-0.00930786
-0.0102234
-0.00976562
-0.0100708
-0.010376
-0.0100708
-0.00961304
-0.00991821
-0.00976562
-0.0100708
-0.00976562
-0.00976562
-0.00976562
-0.00961304
-0.00976562
-0.00991821
-0.00991821
-0.00991821
-0.00991821
-0.00976562
-0.00961304
-0.00930786
-0.00854492
-0.00839233
-0.00793457
-0.00778198
-0.00701904
-0.00656128
-0.00671387
-0.00595093
-0.00595093
-0.00579834
-0.00564575
-0.00564575
-0.00595093
-0.00579834
-0.00656128
-0.00686646
-0.00732422
-0.00778198
-0.00823975
-0.00869751
-0.0088501
-0.00900269
-0.0088501
-0.00854492
-0.00869751
-0.00839233
-0.00823975
-0.00762939
-0.00732422
-0.00717163
-0.00717163
-0.00671387
-0.00701904
-0.00762939
-0.00823975
-0.00823975
-0.00869751
-0.00946045
-0.00930786
-0.00900269
-0.00900269
-0.00869751
-0.00762939
-0.00671387
-0.00579834
-0.00457764
-0.00366211
-0.00183105
-0.000152588
0.00228882
0.00411987
0.00686646
0.00946045
0.0119019
0.0151062
0.0178528
0.0213623
0.0247192
0.0280762
0.0311279
0.0354004
0.0390625
0.042572
0.0465393
0.0502014
0.0541687
0.0579834
0.0614929
0.0643921
0.0663757
0.068512
0.0695801
0.070343
0.0704956
0.070343
0.0700378
0.0697327
0.0695801
0.0694275
0.0694275
0.0695801
0.0698853
0.071106
0.0726318
0.0747681
0.0776672
0.080719
0.0842285
0.088501
0.0926208
0.0967407
0.100555
0.105133
0.108948
0.11261
0.115662
0.118408
0.120087
0.121155
0.121307
0.121155
0.119629
0.11795
0.115051
0.111694
0.108185
0.104065
0.0994873
0.0939941
0.0886536
0.0822449
0.0762939
0.0689697
0.0610352
0.0534058
0.0453186
0.0379944
0.0306702
0.0234985
0.0158691
0.00961304
0.00350952
-0.00244141
-0.00778198
-0.0134277
-0.0187683
-0.0236511
-0.0288391
-0.0341797
-0.0393677
-0.0448608
-0.0498962
-0.0550842
-0.0601196
-0.0645447
-0.0683594
-0.0726318
-0.0753784
-0.0779724
-0.0802612
-0.0819397
-0.0831604
-0.0840759
-0.0848389
-0.0846863
-0.0845337
-0.0840759
-0.0831604
-0.0820923
-0.0813293
-0.0804138
-0.0791931
-0.0784302
-0.0776672
-0.0767517
-0.0761414
-0.075531
-0.0752258
-0.0747681
-0.0741577
-0.0740051
-0.0735474
-0.072937
-0.0724792
-0.0720215
-0.071106
-0.0706482
-0.0698853
-0.0692749
-0.0680542
-0.0674438
-0.0669861
-0.0660706
-0.065918
-0.0657654
-0.0654602
-0.0656128
-0.0650024
-0.0648499
-0.0642395
-0.0634766
-0.0628662
-0.0614929
-0.0604248
-0.0598145
-0.0593567
-0.0585938
-0.058136
-0.0576782
-0.0572205
-0.0576782
-0.058136
-0.0598145
-0.0621033
-0.0645447
-0.0679016
-0.0714111
-0.0753784
-0.0788879
-0.0830078
-0.0863647
-0.0895691
-0.0924683
-0.0946045
-0.09552
-0.0950623
-0.0939941
-0.0914001
-0.0862122
-0.0798035
-0.0704956
-0.0584412
-0.0431824
-0.0242615
-0.00228882
0.0241089
0.0544739
0.0894165
0.127869
0.171051
0.21759
0.267944
0.322266
0.380096
0.440521
0.503387
0.566406
0.62851
0.688324
0.743866
0.793762
0.835114
0.86792
0.891113
0.903931
0.907135
0.900116
0.882721
0.85495
0.816803
0.769043
0.711517
0.64621
0.572815
0.493317
0.409241
0.32196
0.233917
0.146179
0.0608826
-0.0195312
-0.0956726
-0.164032
-0.224457
-0.276794
-0.319672
-0.352478
-0.376587
-0.391083
-0.397797
-0.396881
-0.389252
-0.375977
-0.357971
-0.336914
-0.312042
-0.28595
-0.258179
-0.23056
-0.202637
-0.176239
-0.150909
-0.128174
-0.10788
-0.0892639
-0.0743103
-0.0610352
-0.0506592
-0.0427246
-0.0367737
-0.0323486
-0.0297546
-0.0283813
-0.027771
-0.0288391
-0.0297546
-0.0311279
-0.0337219
-0.0360107
-0.0382996
-0.0410461
-0.0428772
-0.0450134
-0.0468445
-0.0482178
-0.0497437
-0.050354
-0.0506592
-0.0506592
-0.0502014
-0.0494385
-0.0482178
-0.0469971
-0.0450134
-0.0430298
-0.0408936
-0.0390625
-0.0366211
-0.0349426
-0.032959
-0.0311279
-0.0296021
-0.0286865
-0.027771
-0.0271606
-0.0265503
-0.0262451
-0.0262451
-0.0263977
-0.0263977
-0.0270081
-0.0273132
-0.027771
-0.0279236
-0.0282288
-0.0283813
-0.0285339
-0.027771
-0.0273132
-0.0268555
-0.0262451
-0.0253296
-0.0245667
-0.0234985
-0.0224304
-0.0216675
-0.0205994
-0.0196838
-0.0186157
-0.017395
-0.0161743
-0.0143433
-0.0125122
-0.0105286
-0.00900269
-0.00778198
-0.00640869
-0.00610352
-0.00579834
-0.00534058
-0.00564575
-0.00534058
-0.00579834
-0.00564575
-0.0062561
-0.00686646
-0.00732422
-0.00747681
-0.00808716
-0.00839233
-0.00854492
-0.00854492
-0.00839233
-0.00747681
-0.00686646
-0.00579834
-0.00518799
-0.00396729
-0.00244141
-0.00152588
-0.000152588
0.0012207
0.00198364
0.00289917
0.00366211
0.00427246
0.00442505
0.00473022
0.00518799
0.00518799
0.00534058
0.00549316
0.00610352
0.00671387
0.00717163
0.00839233
0.00946045
0.010376
0.0115967
0.01297
0.0138855
0.0154114
0.0161743
0.017395
0.0180054
0.0189209
0.0198364
0.0209045
0.022583
0.0236511
0.0248718
0.0259399
0.0276184
0.0288391
0.0300598
0.0309753
0.0320435
0.0332642
0.0338745
0.0344849
0.0350952
0.035553
0.0361633
0.0363159
0.0366211
0.0369263
0.0376892
0.0379944
0.0390625
0.0392151
0.0404358
0.0416565
0.0430298
0.0447083
0.0468445
0.0486755
0.0508118
0.0526428
0.0546265
0.0563049
0.058136
0.059967
0.0614929
0.0628662
0.0640869
0.0650024
0.065918
0.0669861
0.0679016
0.0688171
0.0700378
0.0715637
0.072937
0.0746155
0.0762939
0.0779724
0.0794983
0.0805664
0.0816345
0.0823975
0.0831604
0.0837708
0.0836182
0.0837708
0.0834656
0.0834656
0.0837708
0.0834656
0.0834656
0.0831604
0.0834656
0.0834656
0.0834656
0.0840759
0.0846863
0.0856018
0.0866699
0.0878906
0.0888062
0.0897217
0.0907898
0.0915527
0.0921631
0.0926208
0.092926
0.0932312
0.092926
0.0927734
0.0923157
0.0917053
0.091095
0.0906372
0.090332
0.0894165
0.0881958
0.0871277
0.0860596
0.0849915
0.0839233
0.0827026
0.0808716
0.0793457
0.0773621
0.0746155
0.0720215
0.0692749
0.0660706
0.0630188
0.0601196
0.0566101
0.0526428
0.0492859
0.045929
0.0421143
0.0389099
0.0354004
0.0318909
0.0282288
0.0244141
0.020752
0.0169373
0.01297
0.00915527
0.00518799
0.00137329
-0.00213623
-0.00595093
-0.00869751
-0.0115967
-0.014801
-0.0169373
-0.0195312
-0.0216675
-0.0241089
-0.0256348
-0.027771
-0.0294495
-0.0312805
-0.0332642
-0.0354004
-0.0375366
-0.039978
-0.0424194
-0.0447083
-0.0474548
-0.0500488
-0.0523376
-0.0541687
-0.0556946
-0.0572205
-0.0579834
-0.0585938
-0.0587463
-0.0590515
-0.0587463
-0.058136
-0.0576782
-0.0572205
-0.0563049
-0.055542
-0.0552368
-0.0540161
-0.0535583
-0.0532532
-0.052948
-0.0534058
-0.0534058
-0.0537109
-0.0543213
-0.0549316
-0.055542
-0.0556946
-0.0566101
-0.0567627
-0.0566101
-0.0569153
-0.0567627
-0.0564575
-0.0559998
-0.055542
-0.0543213
-0.0538635
-0.0531006
-0.0521851
-0.0512695
-0.0505066
-0.0494385
-0.0483704
-0.0473022
-0.0460815
-0.0456238
-0.0439453
-0.0428772
-0.0422668
-0.0408936
-0.0396729
-0.0387573
-0.0379944
-0.037384
-0.0372314
-0.0370789
-0.0370789
-0.0376892
-0.0382996
-0.0392151
-0.0401306
-0.0410461
-0.0410461
-0.0422668
-0.0421143
-0.042572
-0.042572
-0.0427246
-0.0418091
-0.0410461
-0.0401306
-0.0390625
-0.038147
-0.0370789
-0.035553
-0.0343323
-0.0326538
-0.0314331
-0.0302124
-0.0292969
-0.0283813
-0.0274658
-0.0265503
-0.0257874
-0.0248718
-0.0238037
-0.0222778
-0.0212097
-0.0198364
-0.0184631
-0.0172424
-0.0161743
-0.0154114
-0.0144958
-0.0138855
-0.0138855
-0.0137329
-0.0138855
-0.0143433
-0.014801
-0.0154114
-0.0161743
-0.0172424
-0.0180054
-0.0189209
-0.019989
-0.019989
-0.0205994
-0.0204468
-0.0205994
-0.0202942
-0.0202942
-0.0198364
-0.0201416
-0.0193787
-0.0190735
-0.0186157
-0.0186157
-0.0184631
-0.0184631
-0.0180054
-0.0178528
-0.0177002
-0.0177002
-0.0175476
-0.0170898
-0.0169373
-0.0164795
-0.0160217
-0.0154114
-0.0151062
-0.0146484
-0.0143433
-0.0141907
-0.0138855
-0.0138855
-0.0137329
-0.0138855
-0.0137329
-0.0141907
-0.0141907
-0.0144958
-0.0144958
-0.014801
-0.014801
-0.0152588
-0.0154114
-0.015564
-0.015564
-0.0154114
-0.0152588
-0.0158691
-0.0158691
-0.0164795
-0.0160217
-0.0164795
-0.017395
-0.0170898
-0.0175476
-0.0184631
-0.0187683
-0.0189209
-0.0198364
-0.0198364
-0.0202942
-0.0195312
-0.0190735
-0.0186157
-0.0177002
-0.0169373
-0.0163269
-0.0149536
-0.0140381
-0.0131226
-0.0117493
-0.0108337
-0.0105286
-0.00976562
-0.00976562
-0.00961304
-0.00976562
-0.010376
-0.0108337
-0.0115967
-0.0128174
-0.0135803
-0.0141907
-0.0154114
-0.0160217
-0.0167847
-0.0170898
-0.0177002
-0.0184631
-0.0190735
-0.0195312
-0.0195312
-0.0201416
-0.0202942
-0.0209045
-0.0213623
-0.0213623
-0.0213623
-0.0212097
-0.0209045
-0.0201416
-0.0187683
-0.0166321
-0.0143433
-0.0115967
-0.00854492
-0.00534058
-0.00244141
0.000762939
0.0038147
0.00701904
0.010376
0.0131226
0.0163269
0.0193787
0.0222778
0.025177
0.0280762
0.0311279
0.0332642
0.0361633
0.0384521
0.040741
0.0436401
0.045929
0.0483704
0.0509644
0.0527954
0.0549316
0.0572205
0.0595093
0.0614929
0.0631714
0.065155
0.0665283
0.0680542
0.0698853
0.0720215
0.0744629
0.0769043
0.0801086
0.0840759
0.0875854
0.0914001
0.09552
0.0996399
0.103302
0.106964
0.110779
0.114136
0.11673
0.118561
0.120239
0.12085
0.121002
0.120392
0.119019
0.117188
0.114441
0.111237
0.10788
0.103607
0.0997925
0.0952148
0.090332
0.0852966
0.0801086
0.0746155
0.0686646
0.0619507
0.0556946
0.0488281
0.0418091
0.0352478
0.0282288
0.0209045
0.0138855
0.00701904
0.0
-0.00656128
-0.0137329
-0.0205994
-0.0271606
-0.0331116
-0.0393677
-0.0447083
-0.0505066
-0.0553894
-0.0598145
-0.0642395
-0.0683594
-0.0721741
-0.0762939
-0.0793457
-0.0819397
-0.085144
-0.0871277
-0.0889587
-0.090332
-0.0907898
-0.0912476
-0.0914001
-0.0914001
-0.091095
-0.0898743
-0.0889587
-0.0872803
-0.0860596
-0.0839233
-0.0817871
-0.0798035
-0.0773621
-0.0750732
-0.0733948
-0.0715637
-0.0695801
-0.0683594
-0.0674438
-0.0662231
-0.0657654
-0.0650024
-0.0642395
-0.063324
-0.0630188
-0.0624084
-0.0617981
-0.0613403
-0.0608826
-0.0604248
-0.059967
-0.0598145
-0.0595093
-0.0595093
-0.0595093
-0.0595093
-0.0595093
-0.0595093
-0.0592041
-0.0584412
-0.058136
-0.0572205
-0.0569153
-0.0556946
-0.0549316
-0.0538635
-0.052948
-0.0524902
-0.0520325
-0.0531006
-0.0546265
-0.0567627
-0.0593567
-0.0624084
-0.065918
-0.0694275
-0.0735474
-0.0769043
-0.0802612
-0.083313
-0.0854492
-0.0863647
-0.0866699
-0.085144
-0.0817871
-0.0764465
-0.0692749
-0.0588989
-0.045929
-0.0296021
-0.00900269
0.015564
0.0434875
0.0762939
0.112915
0.153503
0.197754
0.245209
0.296936
0.352173
0.410461
0.471191
0.533142
0.595551
0.656586
0.713806
0.766296
0.81192
0.848541
0.87616
0.894318
0.901642
0.898895
0.88623
0.863037
0.82962
0.785675
0.731964
0.669098
0.597839
0.52002
0.436401
0.349274
0.26001
0.170898
0.0831604
-0.000305176
-0.0785828
-0.150909
-0.215302
-0.271149
-0.317993
-0.355225
-0.383148
-0.402069
-0.41275
-0.415039
-0.411224
-0.399933
-0.384979
-0.364838
-0.341644
-0.315857
-0.288544
-0.260468
-0.231476
-0.203705
-0.176544
-0.151367
-0.128021
-0.107269
-0.0891113
-0.0735474
-0.06073
-0.0506592
-0.0430298
-0.0378418
-0.03479
-0.0331116
-0.0331116
-0.0344849
-0.0370789
-0.039978
-0.0428772
-0.0460815
-0.0491333
-0.0523376
-0.0550842
-0.0578308
-0.0602722
-0.0622559
-0.0639343
-0.0650024
-0.065918
-0.0666809
-0.0668335
-0.0666809
-0.0662231
-0.0656128
-0.0642395
-0.0628662
-0.0616455
-0.0595093
-0.0575256
-0.0553894
-0.052948
-0.0506592
-0.04776
-0.045929
-0.043335
-0.0408936
-0.0390625
-0.0376892
-0.0363159
-0.0357056
-0.0346375
-0.0344849
-0.0340271
-0.0338745
-0.0332642
-0.0334167
-0.0331116
-0.032959
-0.0328064
-0.0323486
-0.0318909
-0.0317383
-0.0306702
-0.0299072
-0.0291443
-0.0282288
-0.0276184
-0.0268555
-0.0259399
-0.0259399
-0.0257874
-0.025177
-0.0247192
-0.0247192
-0.0239563
-0.0236511
-0.0228882
-0.0218201
-0.0212097
-0.0198364
-0.0189209
-0.0178528
-0.0164795
-0.0152588
-0.0140381
-0.01297
-0.012207
-0.0108337
-0.0106812
-0.0102234
-0.0100708
-0.00946045
-0.0088501
-0.00854492
-0.00854492
-0.00854492
-0.00839233
-0.00808716
-0.00793457
-0.00747681
-0.00686646
-0.0062561
-0.00564575
-0.00518799
-0.00442505
-0.00366211
-0.00289917
-0.00213623
-0.00137329
-0.000457764
0.000457764
0.00106812
0.00167847
0.00244141
0.00320435
0.00411987
0.00518799
0.0062561
0.00732422
0.0088501
0.00930786
0.0111389
0.0123596
0.0138855
0.0154114
0.0167847
0.0178528
0.0193787
0.0201416
0.0209045
0.0213623
0.0218201
0.0224304
0.022583
0.0228882
0.0234985
0.0242615
0.025177
0.0262451
0.0274658
0.0285339
0.0302124
0.0317383
0.0332642
0.0344849
0.0354004
0.0366211
0.037384
0.0384521
0.0387573
0.0392151
0.0396729
0.0396729
0.039978
0.0404358
0.040741
0.0413513
0.0416565
0.0422668
0.0430298
0.0436401
0.0445557
0.0453186
0.045929
0.0466919
0.0474548
0.0482178
0.0488281
0.0494385
0.050354
0.0514221
0.0520325
0.0531006
0.0540161
0.0549316
0.0559998
0.0569153
0.058136
0.0596619
0.0613403
0.0630188
0.0650024
0.0666809
0.0683594
0.0701904
0.0717163
0.072937
0.0741577
0.0746155
0.0752258
0.075531
0.0753784
0.0750732
0.0749207
0.0747681
0.0741577
0.0738525
0.0733948
0.0737
0.0733948
0.0735474
0.0738525
0.0746155
0.0750732
0.0759888
0.0770569
0.0779724
0.0784302
0.0791931
0.0796509
0.0798035
0.0805664
0.0805664
0.0813293
0.0816345
0.0813293
0.0810242
0.0813293
0.080719
0.0805664
0.0793457
0.0784302
0.0775146
0.0756836
0.0740051
0.0714111
0.0688171
0.0657654
0.0621033
0.058136
0.0537109
0.0494385
0.0447083
0.0398254
0.0350952
0.0302124
0.0253296
0.0204468
0.0161743
0.0115967
0.00747681
0.00350952
-0.000610352
-0.00427246
-0.00762939
-0.0112915
-0.0154114
-0.0186157
-0.0221252
-0.0253296
-0.0289917
-0.0320435
-0.0354004
-0.0379944
-0.040741
-0.0431824
-0.0453186
-0.0474548
-0.0494385
-0.0508118
-0.0521851
-0.0537109
-0.0549316
-0.0556946
-0.0566101
-0.057373
-0.0587463
-0.0595093
-0.0605774
-0.0619507
-0.063324
-0.0648499
-0.065918
-0.0674438
-0.0682068
-0.0695801
-0.0704956
-0.0715637
-0.0718689
-0.0718689
-0.0726318
-0.0726318
-0.0724792
-0.0726318
-0.0720215
-0.0720215
-0.0720215
-0.0717163
-0.0718689
-0.0717163
-0.0718689
-0.0720215
-0.0717163
-0.0717163
-0.0717163
-0.0715637
-0.0715637
-0.0708008
-0.0706482
-0.0701904
-0.0694275
-0.0683594
-0.0675964
-0.0663757
-0.0654602
-0.0642395
-0.0639343
-0.0630188
-0.0622559
-0.0619507
-0.0613403
-0.0611877
-0.0608826
-0.0605774
-0.0601196
-0.0595093
-0.0592041
-0.0584412
-0.058136
-0.0575256
-0.0569153
-0.0567627
-0.0564575
-0.0552368
-0.0549316
-0.0540161
-0.0538635
-0.0527954
-0.0520325
-0.0517273
-0.0517273
-0.0515747
-0.0511169
-0.0508118
-0.0505066
-0.050354
-0.0498962
-0.0491333
-0.0482178
-0.0474548
-0.0463867
-0.0454712
-0.0445557
-0.0437927
-0.0427246
-0.0421143
-0.0418091
-0.0415039
-0.0411987
-0.0413513
-0.0411987
-0.0418091
-0.0415039
-0.0410461
-0.0413513
-0.0408936
-0.0404358
-0.0396729
-0.0389099
-0.0379944
-0.0361633
-0.03479
-0.0335693
-0.0320435
-0.030365
-0.0297546
-0.0279236
-0.0268555
-0.0262451
-0.0253296
-0.0248718
-0.0247192
-0.0250244
-0.0254822
-0.0256348
-0.0256348
-0.0263977
-0.0268555
-0.0271606
-0.0274658
-0.0279236
-0.0279236
-0.0282288
-0.0274658
-0.0273132
-0.0271606
-0.0267029
-0.0265503
-0.0265503
-0.0263977
-0.0271606
-0.0276184
-0.0282288
-0.0291443
-0.0300598
-0.0312805
-0.032196
-0.0332642
-0.0343323
-0.0349426
-0.035553
-0.0363159
-0.0364685
-0.037384
-0.0379944
-0.0382996
-0.0387573
-0.0386047
-0.0389099
-0.0386047
-0.0387573
-0.0386047
-0.0379944
-0.0376892
-0.0370789
-0.0361633
-0.0354004
-0.0346375
-0.0335693
-0.0328064
-0.0311279
-0.0306702
-0.0297546
-0.0289917
-0.0288391
-0.0286865
-0.0289917
-0.0296021
-0.0305176
-0.0314331
-0.0331116
-0.0343323
-0.0360107
-0.0372314
-0.0387573
-0.0404358
-0.0415039
-0.042572
-0.0437927
-0.0445557
-0.0450134
-0.045166
-0.0448608
-0.0447083
-0.0448608
-0.0440979
-0.0437927
-0.043335
-0.0427246
-0.0424194
-0.0421143
-0.0421143
-0.0416565
-0.0415039
-0.0408936
-0.040741
-0.0404358
-0.0404358
-0.0395203
-0.0392151
-0.0387573
-0.0379944
-0.0375366
-0.0367737
-0.0361633
-0.0358582
-0.0352478
-0.0352478
-0.03479
-0.03479
-0.0349426
-0.0344849
-0.0341797
-0.0343323
-0.0334167
-0.0326538
-0.0311279
-0.0292969
-0.0274658
-0.025177
-0.0231934
-0.0201416
-0.0170898
-0.0141907
-0.0108337
-0.00701904
-0.00366211
0.0
0.00335693
0.00671387
0.00991821
0.0125122
0.0157166
0.0183105
0.020752
0.0230408
0.0250244
0.0270081
0.0285339
0.0302124
0.0314331
0.032959
0.0341797
0.0350952
0.0366211
0.037384
0.0386047
0.0395203
0.0401306
0.0410461
0.0424194
0.0434875
0.0454712
0.0476074
0.0497437
0.0527954
0.0558472
0.0596619
0.0634766
0.0675964
0.0715637
0.075531
0.0791931
0.0830078
0.085907
0.0883484
0.090332
0.0912476
0.091095
0.090332
0.0889587
0.0869751
0.0843811
0.0811768
0.0779724
0.0737
0.0692749
0.0646973
0.0598145
0.0543213
0.0486755
0.0424194
0.0367737
0.0296021
0.0231934
0.0167847
0.00991821
0.00335693
-0.00335693
-0.010376
-0.0169373
-0.0233459
-0.0305176
-0.0370789
-0.0439453
-0.0505066
-0.0575256
-0.063324
-0.0692749
-0.0746155
-0.0793457
-0.0842285
-0.0878906
-0.0915527
-0.0944519
-0.0975037
-0.0999451
-0.101776
-0.103912
-0.105438
-0.107117
-0.108337
-0.109558
-0.110321
-0.111237
-0.111542
-0.111694
-0.111694
-0.111389
-0.110931
-0.110474
-0.110016
-0.109558
-0.108643
-0.10849
-0.10788
-0.107574
-0.10788
-0.107422
-0.107269
-0.108185
-0.10849
-0.108337
-0.108948
-0.109253
-0.109406
-0.109406
-0.109406
-0.108795
-0.108185
-0.107727
-0.106506
-0.105438
-0.104065
-0.102692
-0.101166
-0.0999451
-0.0985718
-0.0971985
-0.096283
-0.09552
-0.0946045
-0.093689
-0.0930786
-0.0924683
-0.0917053
-0.0907898
-0.090332
-0.0900269
-0.0901794
-0.0907898
-0.0918579
-0.0938416
-0.0959778
-0.0987244
-0.102081
-0.105133
-0.108795
-0.112305
-0.115967
-0.119171
-0.121765
-0.123901
-0.124969
-0.124512
-0.122528
-0.119476
-0.114136
-0.106659
-0.096283
-0.0834656
-0.0669861
-0.0466919
-0.022583
0.00595093
0.038147
0.0738525
0.113983
0.157776
0.204773
0.25528
0.309143
0.365753
0.424347
0.484619
0.544739
0.603027
0.657806
0.707397
0.750732
0.785675
0.81131
0.828247
0.834961
0.832214
0.81955
0.796967
0.765686
0.724182
0.673218
0.613708
0.545807
0.471191
0.391541
0.30777
0.222321
0.137024
0.0526428
-0.0273132
-0.102844
-0.172119
-0.234833
-0.289307
-0.335083
-0.372009
-0.401154
-0.42099
-0.433197
-0.43808
-0.437012
-0.429688
-0.417786
-0.401764
-0.382538
-0.360413
-0.336609
-0.311127
-0.285492
-0.260162
-0.234985
-0.211182
-0.188446
-0.167542
-0.148773
-0.132446
-0.118256
-0.107269
-0.0978088
-0.091095
-0.085907
-0.08255
-0.0804138
-0.0798035
-0.0801086
-0.0811768
-0.0827026
-0.0840759
-0.0854492
-0.0872803
-0.0881958
-0.0891113
-0.0901794
-0.0904846
-0.0907898
-0.0907898
-0.0901794
-0.0894165
-0.0888062
-0.0878906
-0.0872803
-0.0862122
-0.085144
-0.0842285
-0.083313
-0.0817871
-0.0811768
-0.0802612
-0.0788879
-0.0785828
-0.0775146
-0.0765991
-0.0756836
-0.0746155
-0.0738525
-0.0727844
-0.0720215
-0.0709534
-0.0698853
-0.0692749
-0.0686646
-0.0680542
-0.0674438
-0.0672913
-0.0662231
-0.0657654
-0.0643921
-0.0634766
-0.0624084
-0.0610352
-0.0598145
-0.0579834
-0.0566101
-0.055542
-0.0541687
-0.0534058
-0.0526428
-0.0527954
-0.0526428
-0.0526428
-0.0526428
-0.0534058
-0.0537109
-0.0537109
-0.0541687
-0.0546265
-0.0549316
-0.0552368
-0.0550842
-0.0549316
-0.0543213
-0.0540161
-0.0527954
-0.0511169
-0.0492859
-0.0473022
-0.0445557
-0.0424194
-0.039978
-0.0379944
-0.0364685
-0.03479
-0.0334167
-0.0323486
-0.0314331
-0.0302124
-0.0291443
-0.0283813
-0.027771
-0.0274658
-0.0270081
-0.0267029
-0.0268555
-0.0268555
-0.0270081
-0.0276184
-0.0274658
-0.0280762
-0.0283813
-0.0289917
-0.0292969
-0.0300598
-0.0299072
-0.0300598
-0.0302124
-0.0297546
-0.0288391
-0.027771
-0.0263977
-0.025177
-0.0233459
-0.0215149
-0.0193787
-0.0172424
-0.0151062
-0.0128174
-0.010376
-0.0088501
-0.00701904
-0.00564575
-0.00442505
-0.00366211
-0.00289917
-0.00274658
-0.00228882
-0.00244141
-0.00213623
-0.00213623
-0.00183105
-0.00167847
-0.00106812
-0.000457764
0.000305176
0.000762939
0.00183105
0.00305176
0.00396729
0.00427246
0.00534058
0.00656128
0.00732422
0.00823975
0.00976562
0.0106812
0.0117493
0.0131226
0.0140381
0.015564
0.0170898
0.0190735
0.0204468
0.022583
0.0247192
0.0263977
0.0286865
0.0305176
0.0323486
0.0341797
0.0354004
0.0367737
0.038147
0.0392151
0.0393677
0.0405884
0.0416565
0.0424194
0.0434875
0.0444031
0.0456238
0.0466919
0.0479126
0.0495911
0.0511169
0.0524902
0.0541687
0.0549316
0.0564575
0.057373
0.0576782
0.0582886
0.058136
0.0587463
0.0585938
0.0584412
0.0585938
0.0587463
0.0585938
0.0587463
0.0592041
0.0593567
0.0596619
0.0598145
0.0602722
0.0613403
0.0622559
0.0628662
0.0636292
0.0648499
0.065155
0.0656128
0.065918
0.0662231
0.0653076
0.0653076
0.0642395
0.063324
0.0614929
0.059967
0.0578308
0.0559998
0.0540161
0.0515747
0.0492859
0.0465393
0.0434875
0.0402832
0.0372314
0.0334167
0.0300598
0.0263977
0.022583
0.0186157
0.0151062
0.0111389
0.00778198
0.00442505
0.000762939
-0.00244141
-0.00579834
-0.00854492
-0.0119019
-0.0146484
-0.0170898
-0.019989
-0.022583
-0.0256348
-0.0283813
-0.0309753
-0.0341797
-0.0376892
-0.0410461
-0.0444031
-0.0476074
-0.0511169
-0.0541687
-0.0576782
-0.0598145
-0.062561
-0.0643921
-0.065918
-0.0675964
-0.0686646
-0.0692749
-0.0700378
-0.0704956
-0.0714111
-0.0717163
-0.0717163
-0.0723267
-0.0724792
-0.0732422
-0.0737
-0.0743103
-0.0750732
-0.0756836
-0.0765991
-0.0772095
-0.0779724
-0.0782776
-0.0788879
-0.0788879
-0.0787354
-0.0788879
-0.0787354
-0.0787354
-0.0785828
-0.0787354
-0.0790405
-0.0796509
-0.0804138
-0.0808716
-0.0817871
-0.0822449
-0.0834656
-0.0843811
-0.085144
-0.085907
-0.0860596
-0.0869751
-0.0872803
-0.0872803
-0.087738
-0.0871277
-0.0869751
-0.0866699
-0.0862122
-0.0856018
-0.0849915
-0.0842285
-0.0834656
-0.0820923
-0.0816345
-0.0810242
-0.0801086
-0.0788879
-0.078125
-0.0772095
-0.0762939
-0.0752258
-0.0738525
-0.0723267
-0.0704956
-0.0686646
-0.0665283
-0.0648499
-0.0628662
-0.0610352
-0.0595093
-0.0576782
-0.0564575
-0.0552368
-0.0544739
-0.0532532
-0.0527954
-0.0520325
-0.0511169
-0.0506592
-0.0502014
-0.0489807
-0.0480652
-0.0473022
-0.0462341
-0.045166
-0.0445557
-0.0430298
-0.0424194
-0.0411987
-0.040741
-0.039978
-0.0396729
-0.0392151
-0.0387573
-0.0390625
-0.0384521
-0.0389099
-0.038147
-0.0376892
-0.0376892
-0.0372314
-0.0370789
-0.0372314
-0.0376892
-0.0376892
-0.0376892
-0.0379944
-0.038147
-0.0382996
-0.0376892
-0.0376892
-0.0375366
-0.0376892
-0.0372314
-0.0372314
-0.0367737
-0.0360107
-0.0349426
-0.0338745
-0.0325012
-0.0306702
-0.0285339
-0.0268555
-0.0244141
-0.022583
-0.019989
-0.0186157
-0.0169373
-0.0158691
-0.0149536
-0.0143433
-0.0141907
-0.0149536
-0.0154114
-0.0164795
-0.0178528
-0.0193787
-0.0209045
-0.0230408
-0.0242615
-0.0257874
-0.0265503
-0.0274658
-0.0279236
-0.0285339
-0.0283813
-0.0285339
-0.0283813
-0.0279236
-0.0279236
-0.0280762
-0.0282288
-0.0286865
-0.0289917
-0.0299072
-0.0306702
-0.0309753
-0.0315857
-0.0325012
-0.032959
-0.032959
-0.0331116
-0.0332642
-0.0334167
-0.0334167
-0.0334167
-0.0331116
-0.0331116
-0.0323486
-0.0317383
-0.0309753
-0.0300598
-0.0296021
-0.0286865
-0.0276184
-0.0263977
-0.0254822
-0.0244141
-0.0228882
-0.0219727
-0.0204468
-0.0190735
-0.0178528
-0.0166321
-0.015564
-0.0152588
-0.014801
-0.0146484
-0.0144958
-0.014801
-0.0146484
-0.0152588
-0.0163269
-0.0170898
-0.018158
-0.0193787
-0.0204468
-0.0210571
-0.0221252
-0.0227356
-0.0230408
-0.0233459
-0.0239563
-0.0238037
-0.0234985
-0.0231934
-0.0222778
-0.0215149
-0.0201416
-0.0192261
-0.018158
-0.0166321
-0.0157166
-0.0143433
-0.0131226
-0.012207
-0.0108337
-0.00930786
-0.00823975
-0.0062561
-0.00473022
-0.00228882
0.000152588
0.00320435
0.00564575
0.0088501
0.0115967
0.0143433
0.0172424
0.0195312
0.0215149
0.0238037
0.0250244
0.0262451
0.0279236
0.0286865
0.0297546
0.0314331
0.0328064
0.0341797
0.035553
0.037384
0.0393677
0.0413513
0.0440979
0.0469971
0.0498962
0.052948
0.0569153
0.0601196
0.0634766
0.0669861
0.0701904
0.0732422
0.0765991
0.0798035
0.0827026
0.0852966
0.0874329
0.0892639
0.0900269
0.0904846
0.0912476
0.0904846
0.0897217
0.0880432
0.0857544
0.0830078
0.0796509
0.0759888
0.0714111
0.0666809
0.0605774
0.0540161
0.0479126
0.0401306
0.0331116
0.0259399
0.0178528
0.0100708
0.00259399
-0.00427246
-0.0108337
-0.0178528
-0.0244141
-0.0311279
-0.0376892
-0.0436401
-0.0495911
-0.055542
-0.0616455
-0.0675964
-0.0730896
-0.0779724
-0.0827026
-0.0874329
-0.0909424
-0.0949097
-0.0982666
-0.100708
-0.102081
-0.103149
-0.103912
-0.104065
-0.103912
-0.103455
-0.102539
-0.101776
-0.100555
-0.0999451
-0.098877
-0.098114
-0.0978088
-0.0970459
-0.0967407
-0.0965881
-0.0964355
-0.0964355
-0.0965881
-0.096283
-0.096283
-0.0965881
-0.0965881
-0.0971985
-0.098114
-0.0987244
-0.0991821
-0.0996399
-0.0999451
-0.100098
-0.0996399
-0.0999451
-0.0993347
-0.0990295
-0.098114
-0.0973511
-0.096283
-0.0942993
-0.092926
-0.0907898
-0.0888062
-0.0862122
-0.0836182
-0.0805664
-0.0784302
-0.0761414
-0.0737
-0.0720215
-0.0701904
-0.0694275
-0.0692749
-0.0692749
-0.0704956
-0.0724792
-0.0752258
-0.078125
-0.0817871
-0.0852966
-0.0900269
-0.0941467
-0.0987244
-0.102234
-0.105438
-0.107727
-0.108948
-0.109253
-0.108032
-0.105743
-0.101471
-0.0952148
-0.0874329
-0.0782776
-0.0654602
-0.0505066
-0.0331116
-0.0115967
0.0128174
0.040741
0.0726318
0.10788
0.14679
0.188141
0.233307
0.281067
0.331573
0.384979
0.440216
0.496063
0.550537
0.60257
0.650635
0.692444
0.726776
0.753326
0.771027
0.780182
0.780182
0.771484
0.7547
0.729828
0.696411
0.655518
0.606384
0.550232
0.487366
0.419006
0.346527
0.271606
0.195618
0.119476
0.0457764
-0.0244141
-0.0901794
-0.150299
-0.20401
-0.250549
-0.289612
-0.320892
-0.345154
-0.361938
-0.372772
-0.37735
-0.37674
-0.371704
-0.363312
-0.351257
-0.336914
-0.320435
-0.302734
-0.283966
-0.264435
-0.244904
-0.22522
-0.206604
-0.188904
-0.171967
-0.156403
-0.141602
-0.128632
-0.116577
-0.105743
-0.0959778
-0.0878906
-0.0805664
-0.0746155
-0.0695801
-0.0653076
-0.0619507
-0.0596619
-0.057373
-0.0556946
-0.0550842
-0.0547791
-0.0546265
-0.0552368
-0.0563049
-0.0566101
-0.0575256
-0.0584412
-0.0595093
-0.0601196
-0.0608826
-0.0613403
-0.0622559
-0.0627136
-0.0631714
-0.063324
-0.0640869
-0.0642395
-0.0645447
-0.0646973
-0.0646973
-0.0648499
-0.0648499
-0.0645447
-0.0640869
-0.063324
-0.0627136
-0.0617981
-0.0604248
-0.0590515
-0.0570679
-0.0549316
-0.0534058
-0.0512695
-0.0489807
-0.0468445
-0.045166
-0.0430298
-0.0416565
-0.0401306
-0.0389099
-0.0376892
-0.037384
-0.0370789
-0.0367737
-0.0364685
-0.0367737
-0.0366211
-0.0367737
-0.0370789
-0.0366211
-0.0361633
-0.035553
-0.0350952
-0.0343323
-0.0334167
-0.0323486
-0.0320435
-0.0311279
-0.0308228
-0.0302124
-0.0302124
-0.0296021
-0.0294495
-0.0289917
-0.0288391
-0.0282288
-0.0274658
-0.0270081
-0.0259399
-0.0250244
-0.0234985
-0.022583
-0.0210571
-0.0193787
-0.0180054
-0.0163269
-0.0149536
-0.0131226
-0.0117493
-0.0106812
-0.00930786
-0.00839233
-0.00762939
-0.00701904
-0.00656128
-0.00610352
-0.00579834
-0.0050354
-0.00442505
-0.00350952
-0.00289917
-0.00228882
-0.00183105
-0.00152588
-0.000915527
0.0
0.000610352
0.00137329
0.00183105
0.00274658
0.00305176
0.0038147
0.00427246
0.00473022
0.00518799
0.00518799
0.00534058
0.00518799
0.0050354
0.00534058
0.00595093
0.00595093
0.00656128
0.00671387
0.00686646
0.00717163
0.00732422
0.00747681
0.00778198
0.00793457
0.00839233
0.00823975
0.0088501
0.00946045
0.010376
0.0119019
0.0134277
0.0158691
0.018158
0.0202942
0.0233459
0.0260925
0.0292969
0.0320435
0.0352478
0.037384
0.0395203
0.0410461
0.0422668
0.0431824
0.0439453
0.0442505
0.0439453
0.0440979
0.0442505
0.0436401
0.043335
0.0430298
0.0428772
0.0431824
0.0427246
0.0427246
0.0430298
0.043335
0.0439453
0.0450134
0.0456238
0.0466919
0.0482178
0.0494385
0.0506592
0.0517273
0.0526428
0.0537109
0.0544739
0.0558472
0.0566101
0.0579834
0.0592041
0.0602722
0.0622559
0.063324
0.0645447
0.0662231
0.0675964
0.0686646
0.0694275
0.0698853
0.070343
0.0701904
0.0704956
0.0700378
0.0700378
0.0700378
0.0698853
0.0695801
0.0692749
0.0689697
0.0686646
0.068512
0.068512
0.068512
0.068512
0.0680542
0.068512
0.067749
0.0679016
0.0674438
0.0668335
0.065918
0.0648499
0.0634766
0.0616455
0.0596619
0.0578308
0.055542
0.052948
0.0498962
0.0474548
0.0444031
0.0413513
0.0386047
0.0352478
0.0318909
0.0282288
0.0245667
0.020752
0.0166321
0.0123596
0.00839233
0.00396729
-0.000152588
-0.00442505
-0.00869751
-0.0126648
-0.0166321
-0.0192261
-0.0219727
-0.0245667
-0.0270081
-0.0286865
-0.0302124
-0.0312805
-0.0325012
-0.0332642
-0.0341797
-0.0350952
-0.0354004
-0.0363159
-0.0375366
-0.0386047
-0.0396729
-0.0411987
-0.0421143
-0.0439453
-0.045166
-0.0462341
-0.0474548
-0.0483704
-0.0492859
-0.0497437
-0.0500488
-0.050354
-0.0512695
-0.0517273
-0.0523376
-0.0527954
-0.0532532
-0.0543213
-0.0549316
-0.055542
-0.0564575
-0.0570679
-0.0575256
-0.058136
-0.0587463
-0.0588989
-0.0592041
-0.0590515
-0.0588989
-0.0578308
-0.0576782
-0.0572205
-0.0566101
-0.0556946
-0.0549316
-0.0543213
-0.052948
-0.0521851
-0.0515747
-0.0508118
-0.0497437
-0.0492859
-0.0482178
-0.0473022
-0.0466919
-0.0457764
-0.045166
-0.0442505
-0.043335
-0.042572
-0.0416565
-0.0408936
-0.0398254
-0.0390625
-0.0382996
-0.0370789
-0.0366211
-0.0358582
-0.035553
-0.0349426
-0.0350952
-0.0341797
-0.0337219
-0.032959
-0.0320435
-0.0314331
-0.0306702
-0.0300598
-0.0286865
-0.0279236
-0.0262451
-0.0250244
-0.0234985
-0.0218201
-0.0202942
-0.0187683
-0.0170898
-0.0157166
-0.0143433
-0.0134277
-0.0128174
-0.0119019
-0.0111389
-0.0108337
-0.0102234
-0.00946045
-0.00869751
-0.00808716
-0.00747681
-0.00656128
-0.00549316
-0.00442505
-0.00366211
-0.00289917
-0.00198364
-0.00137329
-0.00106812
-0.000305176
0.0
-0.000152588
-0.000457764
-0.000305176
-0.000152588
-0.000457764
-0.000152588
0.0
0.000457764
0.000762939
0.0012207
0.00167847
0.00198364
0.00274658
0.00289917
0.00335693
0.00366211
0.00442505
0.00442505
0.00427246
0.00457764
0.00427246
0.00411987
0.0038147
0.00396729
0.00366211
0.00411987
0.0038147
0.00427246
0.00534058
0.00549316
0.00640869
0.00747681
0.00854492
0.00930786
0.0105286
0.0111389
0.0117493
0.012207
0.0126648
0.0126648
0.0126648
0.0123596
0.012207
0.0120544
0.0114441
0.0114441
0.0111389
0.0102234
0.010376
0.00976562
0.00961304
0.00930786
0.00946045
0.00915527
0.00946045
0.00976562
0.0100708
0.0100708
0.0100708
0.0102234
0.0100708
0.00976562
0.00976562
0.00869751
0.0088501
0.00854492
0.00778198
0.00717163
0.00686646
0.00640869
0.00656128
0.00656128
0.00610352
0.0062561
0.0062561
0.00595093
0.00595093
0.00595093
0.00534058
0.0050354
0.00442505
0.00350952
0.00274658
0.00213623
0.00167847
0.00137329
0.0012207
0.000610352
0.000915527
0.000915527
0.0012207
0.00198364
0.00259399
0.00320435
0.0038147
0.00488281
0.00549316
0.00656128
0.00671387
0.00671387
0.00686646
0.00656128
0.00686646
0.00656128
0.00610352
0.00656128
0.00671387
0.00717163
0.00762939
0.00869751
0.00961304
0.0112915
0.01297
0.0146484
0.0169373
0.0192261
0.0222778
0.0250244
0.0282288
0.0312805
0.0344849
0.0375366
0.0404358
0.0442505
0.0476074
0.0515747
0.0550842
0.0588989
0.0631714
0.0668335
0.0706482
0.0738525
0.0776672
0.0805664
0.0830078
0.0854492
0.0874329
0.0894165
0.091095
0.0921631
0.0932312
0.0935364
0.0946045
0.0950623
0.0964355
0.0973511
0.098877
0.100555
0.103302
0.105743
0.10849
0.112
0.115509
0.118866
0.122681
0.126038
0.129547
0.132599
0.134888
0.136414
0.137787
0.137634
0.137024
0.135498
0.133667
0.130768
0.127258
0.122986
0.118408
0.113983
0.109406
0.104218
0.0990295
0.0933838
0.0872803
0.0808716
0.0740051
0.0666809
0.0595093
0.0521851
0.0445557
0.037384
0.0300598
0.0227356
0.0160217
0.00854492
0.00213623
-0.00442505
-0.0112915
-0.0180054
-0.0242615
-0.030365
-0.0364685
-0.0422668
-0.0471497
-0.0523376
-0.0567627
-0.0605774
-0.0645447
-0.067749
-0.0704956
-0.0737
-0.0765991
-0.0787354
-0.0808716
-0.0823975
-0.0831604
-0.083313
-0.0839233
-0.0840759
-0.0837708
-0.0830078
-0.08255
-0.0819397
-0.0813293
-0.0802612
-0.0794983
-0.0791931
-0.0782776
-0.0778198
-0.0769043
-0.0765991
-0.0758362
-0.0753784
-0.0737
-0.072937
-0.0717163
-0.0708008
-0.0692749
-0.067749
-0.0662231
-0.0648499
-0.063324
-0.0624084
-0.0616455
-0.0608826
-0.0608826
-0.0604248
-0.0605774
-0.0608826
-0.0604248
-0.0605774
-0.0613403
-0.0619507
-0.0622559
-0.062561
-0.0631714
-0.0637817
-0.0634766
-0.0634766
-0.0634766
-0.0636292
-0.0628662
-0.063324
-0.0642395
-0.0653076
-0.0663757
-0.067749
-0.0695801
-0.0720215
-0.0744629
-0.0765991
-0.0791931
-0.0808716
-0.0823975
-0.0836182
-0.0836182
-0.0823975
-0.0798035
-0.0761414
-0.070343
-0.0628662
-0.0527954
-0.0401306
-0.0250244
-0.00549316
0.0164795
0.0427246
0.0733948
0.107422
0.145264
0.186005
0.231323
0.279999
0.332184
0.388031
0.446472
0.506592
0.567474
0.627747
0.684814
0.73761
0.784302
0.823212
0.853271
0.874023
0.884552
0.886078
0.87738
0.858765
0.829773
0.791473
0.743103
0.684814
0.618896
0.545044
0.465851
0.381927
0.295563
0.208282
0.122223
0.0398254
-0.0387573
-0.110779
-0.175934
-0.232544
-0.280457
-0.318604
-0.348358
-0.369263
-0.381622
-0.38681
-0.385437
-0.377808
-0.36499
-0.348511
-0.327454
-0.304108
-0.278168
-0.25116
-0.223846
-0.196991
-0.171204
-0.146332
-0.124054
-0.103607
-0.0857544
-0.0706482
-0.0576782
-0.0471497
-0.0393677
-0.0331116
-0.0289917
-0.0260925
-0.0245667
-0.0236511
-0.0234985
-0.0239563
-0.0244141
-0.0259399
-0.0267029
-0.0279236
-0.0286865
-0.0297546
-0.0302124
-0.0306702
-0.0309753
-0.0312805
-0.0317383
-0.0317383
-0.0323486
-0.032196
-0.0325012
-0.0325012
-0.0323486
-0.0323486
-0.0318909
-0.0311279
-0.0305176
-0.0292969
-0.027771
-0.0262451
-0.0247192
-0.0228882
-0.0212097
-0.0195312
-0.0178528
-0.0163269
-0.0151062
-0.0134277
-0.0117493
-0.0108337
-0.00961304
-0.00808716
-0.00732422
-0.00640869
-0.00549316
-0.00473022
-0.00366211
-0.00289917
-0.00259399
-0.00244141
-0.00183105
-0.00167847
-0.00198364
-0.00213623
-0.00228882
-0.00274658
-0.00335693
-0.00427246
-0.00534058
-0.00564575
-0.00656128
-0.00747681
-0.00778198
-0.00762939
-0.00701904
-0.00656128
-0.00610352
-0.00442505
-0.00350952
-0.00198364
-0.000457764
0.00106812
0.00274658
0.00442505
0.00595093
0.00762939
0.00961304
0.0105286
0.012207
0.0132751
0.0143433
0.014801
0.0157166
0.0161743
0.0164795
0.0166321
0.017395
0.0175476
0.0180054
0.0187683
0.0195312
0.0198364
0.0202942
0.0204468
0.0204468
0.0204468
0.0198364
0.0192261
0.0187683
0.0183105
0.0175476
0.0170898
0.0169373
0.0167847
0.0167847
0.0169373
0.0175476
0.0180054
0.0187683
0.019989
0.0212097
0.0227356
0.0241089
0.0259399
0.0279236
0.0296021
0.0312805
0.0328064
0.0346375
0.0367737
0.0379944
0.0398254
0.0408936
0.0422668
0.0436401
0.0448608
0.0457764
0.0474548
0.0479126
0.0485229
0.0495911
0.0502014
0.0509644
0.0518799
0.0524902
0.0531006
0.0534058
0.0532532
0.0537109
0.0532532
0.0537109
0.0537109
0.0541687
0.0547791
0.0556946
0.0564575
0.0578308
0.0592041
0.0608826
0.0628662
0.0646973
0.0669861
0.0695801
0.0718689
0.0747681
0.0772095
0.0791931
0.0813293
0.0836182
0.0857544
0.0874329
0.0889587
0.090332
0.0921631
0.0932312
0.0946045
0.09552
0.0965881
0.0982666
0.0990295
0.0997925
0.100708
0.101776
0.102081
0.102234
0.102234
0.102081
0.102081
0.101776
0.101471
0.101013
0.100555
0.100708
0.100403
0.100861
0.101166
0.101471
0.102692
0.103912
0.104828
0.106201
0.107574
0.109406
0.110474
0.112457
0.113525
0.114899
0.115356
0.116119
0.116577
0.116272
0.116119
0.115509
0.114594
0.113525
0.112457
0.111084
0.109253
0.107727
0.105591
0.10376
0.101013
0.0982666
0.0953674
0.0917053
0.088501
0.0843811
0.0802612
0.0752258
0.070343
0.0650024
0.059967
0.0544739
0.0495911
0.0448608
0.039978
0.0361633
0.0320435
0.0280762
0.0241089
0.0209045
0.0177002
0.014801
0.0123596
0.00991821
0.00793457
0.00579834
0.00396729
0.00167847
-0.000457764
-0.00228882
-0.00442505
-0.00671387
-0.0088501
-0.0108337
-0.01297
-0.015564
-0.0177002
-0.0198364
-0.0218201
-0.0247192
-0.0267029
-0.0292969
-0.0317383
-0.0337219
-0.0366211
-0.0387573
-0.0411987
-0.0431824
-0.045166
-0.0471497
-0.0492859
-0.0505066
-0.0515747
-0.0524902
-0.052948
-0.0531006
-0.0531006
-0.0524902
-0.0520325
-0.0517273
-0.0509644
-0.0505066
-0.0498962
-0.0495911
-0.0488281
-0.0491333
-0.0495911
-0.0497437
-0.0502014
-0.050354
-0.0508118
-0.0509644
-0.0517273
-0.0517273
-0.0512695
-0.0517273
-0.0511169
-0.0506592
-0.0506592
-0.0498962
-0.0495911
-0.0485229
-0.0480652
-0.0474548
-0.0466919
-0.0463867
-0.0457764
-0.045166
-0.0448608
-0.0444031
-0.0444031
-0.0439453
-0.0434875
-0.0436401
-0.0437927
-0.0436401
-0.0434875
-0.0434875
-0.043335
-0.0437927
-0.0439453
-0.0439453
-0.0439453
-0.0439453
-0.0439453
-0.0439453
-0.0450134
-0.0454712
-0.0462341
-0.0466919
-0.0469971
-0.0471497
-0.0469971
-0.0465393
-0.0456238
-0.0444031
-0.0422668
-0.0402832
-0.0376892
-0.0349426
-0.0325012
-0.0297546
-0.0274658
-0.0254822
-0.0231934
-0.0209045
-0.0195312
-0.018158
-0.0170898
-0.0164795
-0.0158691
-0.015564
-0.0151062
-0.0152588
-0.0151062
-0.0151062
-0.0149536
-0.0149536
-0.0144958
-0.0146484
-0.0143433
-0.0143433
-0.0140381
-0.0144958
-0.0141907
-0.0144958
-0.0146484
-0.015564
-0.015564
-0.0161743
-0.0164795
-0.0169373
-0.0172424
-0.0167847
-0.0167847
-0.0161743
-0.0163269
-0.015564
-0.0152588
-0.0143433
-0.0135803
-0.01297
-0.0126648
-0.0117493
-0.0111389
-0.0106812
-0.010376
-0.00976562
-0.00930786
-0.00869751
-0.00793457
-0.00732422
-0.00686646
-0.00579834
-0.00549316
-0.00473022
-0.00473022
-0.0038147
-0.00320435
-0.00274658
-0.00228882
-0.00183105
-0.00152588
-0.00106812
-0.00137329
-0.00137329
-0.00167847
-0.00244141
-0.00350952
-0.00442505
-0.0050354
-0.00595093
-0.00686646
-0.00778198
-0.00854492
-0.00930786
-0.00915527
-0.00961304
-0.00961304
-0.00946045
-0.00900269
-0.00854492
-0.00839233
-0.00793457
-0.00732422
-0.00747681
-0.00793457
-0.00808716
-0.00869751
-0.00946045
-0.00961304
-0.0105286
-0.0111389
-0.0114441
-0.0115967
-0.0119019
-0.0119019
-0.0117493
-0.0119019
-0.0117493
-0.0119019
-0.0119019
-0.0111389
-0.0111389
-0.0114441
-0.0114441
-0.0114441
-0.0120544
-0.0123596
-0.0123596
-0.01297
-0.0131226
-0.0138855
-0.0144958
-0.0146484
-0.014801
-0.014801
-0.0152588
-0.0146484
-0.0144958
-0.0140381
-0.0140381
-0.0134277
-0.0131226
-0.01297
-0.0125122
-0.0117493
-0.0108337
-0.00961304
-0.00778198
-0.00640869
-0.00366211
-0.0012207
0.00137329
0.00473022
0.00747681
0.0114441
0.0149536
0.0193787
0.0234985
0.0274658
0.0318909
0.0364685
0.0401306
0.0442505
0.04776
0.0514221
0.0544739
0.057373
0.0605774
0.0624084
0.0646973
0.0668335
0.0686646
0.071106
0.0733948
0.0756836
0.0776672
0.0801086
0.0822449
0.0840759
0.085907
0.0874329
0.0894165
0.0915527
0.0935364
0.0952148
0.0970459
0.0991821
0.101013
0.102692
0.104675
0.106964
0.108795
0.110779
0.112457
0.114288
0.115662
0.11673
0.117188
0.117645
0.117493
0.117493
0.115967
0.114136
0.111389
0.108032
0.104523
0.0997925
0.0949097
0.0900269
0.0837708
0.0775146
0.071106
0.0636292
0.0566101
0.0492859
0.0416565
0.0350952
0.027771
0.020752
0.0132751
0.0062561
-0.000610352
-0.00747681
-0.0144958
-0.020752
-0.0280762
-0.0338745
-0.0404358
-0.0462341
-0.0517273
-0.0570679
-0.0617981
-0.065918
-0.0692749
-0.0724792
-0.0747681
-0.0769043
-0.0787354
-0.0802612
-0.0817871
-0.0831604
-0.0840759
-0.0854492
-0.0868225
-0.088501
-0.0895691
-0.0907898
-0.0921631
-0.0924683
-0.093689
-0.0941467
-0.0946045
-0.0944519
-0.0942993
-0.0938416
-0.0932312
-0.0924683
-0.0917053
-0.090332
-0.0897217
-0.088501
-0.0872803
-0.0860596
-0.0849915
-0.0840759
-0.0836182
-0.0823975
-0.0813293
-0.0811768
-0.0799561
-0.0784302
-0.0775146
-0.0764465
-0.0750732
-0.0740051
-0.0727844
-0.0717163
-0.0704956
-0.0691223
-0.067749
-0.0662231
-0.065155
-0.0636292
-0.0624084
-0.0617981
-0.0613403
-0.0613403
-0.0613403
-0.0619507
-0.0628662
-0.0642395
-0.0662231
-0.068512
-0.0715637
-0.0750732
-0.078125
-0.0820923
-0.0856018
-0.0888062
-0.0920105
-0.0952148
-0.0978088
-0.0991821
-0.0999451
-0.0999451
-0.0987244
-0.0958252
-0.0907898
-0.0837708
-0.0738525
-0.0610352
-0.0439453
-0.0231934
0.00152588
0.0312805
0.0646973
0.102539
0.145569
0.191956
0.242004
0.296631
0.354919
0.416107
0.479279
0.544281
0.608673
0.670319
0.729218
0.782166
0.827789
0.864868
0.892792
0.910797
0.917969
0.915985
0.902863
0.878754
0.843964
0.79834
0.742645
0.677032
0.603485
0.522461
0.435333
0.344849
0.252228
0.160065
0.0694275
-0.017395
-0.0984192
-0.173187
-0.239716
-0.296783
-0.343628
-0.380707
-0.40741
-0.424805
-0.432892
-0.432587
-0.425568
-0.411987
-0.393066
-0.369873
-0.343781
-0.315399
-0.285492
-0.25528
-0.22522
-0.196381
-0.168915
-0.143433
-0.120392
-0.100098
-0.0822449
-0.0679016
-0.0556946
-0.0462341
-0.0402832
-0.0363159
-0.0352478
-0.0361633
-0.038147
-0.0422668
-0.0463867
-0.0512695
-0.0566101
-0.0617981
-0.0668335
-0.0714111
-0.0756836
-0.0785828
-0.0813293
-0.0831604
-0.0836182
-0.0842285
-0.0834656
-0.08255
-0.0805664
-0.0784302
-0.0756836
-0.0723267
-0.0688171
-0.0650024
-0.0614929
-0.0578308
-0.0543213
-0.0509644
-0.0482178
-0.0453186
-0.0427246
-0.0408936
-0.0396729
-0.0382996
-0.0364685
-0.0360107
-0.0352478
-0.0349426
-0.0349426
-0.0349426
-0.0352478
-0.0360107
-0.0370789
-0.0375366
-0.0390625
-0.0401306
-0.0413513
-0.0427246
-0.0436401
-0.0437927
-0.0442505
-0.0445557
-0.0439453
-0.043335
-0.0418091
-0.0402832
-0.0384521
-0.0363159
-0.0337219
-0.0312805
-0.0285339
-0.0257874
-0.0231934
-0.0209045
-0.0187683
-0.0169373
-0.0157166
-0.0149536
-0.0144958
-0.0141907
-0.0141907
-0.0146484
-0.0151062
-0.0154114
-0.0161743
-0.0164795
-0.0166321
-0.0164795
-0.0167847
-0.0169373
-0.0163269
-0.0164795
-0.0157166
-0.0152588
-0.0149536
-0.0140381
-0.0135803
-0.01297
-0.0120544
-0.0114441
-0.00991821
-0.00854492
-0.00717163
-0.00549316
-0.00396729
-0.00259399
-0.00106812
0.0
0.0012207
0.00228882
0.00350952
0.00457764
0.00549316
0.00640869
0.00732422
0.00778198
0.0088501
0.00915527
0.00946045
0.010376
0.0106812
0.0117493
0.0125122
0.0137329
0.0151062
0.0166321
0.0178528
0.0192261
0.0205994
0.0222778
0.0239563
0.025177
0.0257874
0.0273132
0.0280762
0.0285339
0.0288391
0.0292969
0.0300598
0.030365
0.0309753
0.0317383
0.032959
0.0341797
0.0357056
0.037384
0.0395203
0.0410461
0.0428772
0.045166
0.0471497
0.0494385
0.0515747
0.0535583
0.0559998
0.0579834
0.0598145
0.0613403
0.0628662
0.0642395
0.0656128
0.0674438
0.0691223
0.0704956
0.0723267
0.0740051
0.0758362
0.0770569
0.0785828
0.080719
0.0823975
0.0839233
0.0857544
0.0871277
0.0889587
0.0904846
0.0918579
0.0930786
0.0944519
0.09552
0.0967407
0.0973511
0.0982666
0.098877
0.100098
0.10025
0.101624
0.102081
0.103302
0.103607
0.104675
0.105591
0.105743
0.106201
0.106812
0.106659
0.106812
0.107422
0.107574
0.108032
0.108337
0.108948
0.109863
0.110779
0.112
0.113525
0.115204
0.117035
0.118866
0.119934
0.12146
0.122986
0.123596
0.124207
0.124512
0.124054
0.122986
0.12085
0.118866
0.116272
0.113068
0.109863
0.105896
0.101624
0.0976562
0.0933838
0.0886536
0.0840759
0.0791931
0.0738525
0.0691223
0.0640869
0.0592041
0.0535583
0.0482178
0.0434875
0.0386047
0.0335693
0.0288391
0.0242615
0.020752
0.0167847
0.0134277
0.0102234
0.00778198
0.00518799
0.00366211
0.00167847
0.000152588
-0.00167847
-0.00320435
-0.00488281
-0.00656128
-0.00823975
-0.0102234
-0.0117493
-0.0140381
-0.0158691
-0.0180054
-0.0198364
-0.0218201
-0.0236511
-0.0257874
-0.027771
-0.0296021
-0.0312805
-0.0331116
-0.0349426
-0.0364685
-0.0376892
-0.0390625
-0.040741
-0.0422668
-0.0440979
-0.0457764
-0.04776
-0.0494385
-0.0515747
-0.052948
-0.0546265
-0.0558472
-0.0564575
-0.0570679
-0.0572205
-0.0575256
-0.0570679
-0.0566101
-0.0553894
-0.0541687
-0.0531006
-0.0518799
-0.0508118
-0.0492859
-0.0480652
-0.0471497
-0.0468445
-0.0463867
-0.0454712
-0.045166
-0.0454712
-0.0450134
-0.045166
-0.0448608
-0.0453186
-0.0450134
-0.0447083
-0.0447083
-0.0437927
-0.0436401
-0.042572
-0.042572
-0.0419617
-0.0415039
-0.0408936
-0.040741
-0.0408936
-0.040741
-0.0413513
-0.0410461
-0.0408936
-0.0404358
-0.0405884
-0.039978
-0.0398254
-0.0393677
-0.0387573
-0.0384521
-0.0376892
-0.037384
-0.0366211
-0.0363159
-0.0358582
-0.0352478
-0.03479
-0.03479
-0.0343323
-0.0341797
-0.0335693
-0.0334167
-0.0328064
-0.0315857
-0.0311279
-0.0294495
-0.0288391
-0.0276184
-0.0259399
-0.0245667
-0.0233459
-0.0218201
-0.0202942
-0.0190735
-0.0175476
-0.0166321
-0.015564
-0.0144958
-0.0141907
-0.0138855
-0.0135803
-0.0132751
-0.0134277
-0.0135803
-0.0140381
-0.0141907
-0.0143433
-0.0143433
-0.0141907
-0.0140381
-0.0134277
-0.0132751
-0.0125122
-0.0125122
-0.0119019
-0.0119019
-0.0112915
-0.0114441
-0.0112915
-0.0114441
-0.0115967
-0.0117493
-0.0120544
-0.0117493
-0.0117493
-0.012207
-0.012207
-0.012207
-0.012207
-0.0117493
-0.0115967
-0.0115967
-0.0119019
-0.0115967
-0.0115967
-0.0119019
-0.0123596
-0.0125122
-0.0132751
-0.0141907
-0.0154114
-0.0164795
-0.0170898
-0.0180054
-0.0183105
-0.0192261
-0.0189209
-0.0196838
-0.0193787
-0.0190735
-0.0189209
-0.0183105
-0.0180054
-0.0175476
-0.0170898
-0.0163269
-0.0161743
-0.0154114
-0.0149536
-0.0149536
-0.014801
-0.014801
-0.014801
-0.0144958
-0.014801
-0.0146484
-0.0140381
-0.0138855
-0.0137329
-0.0134277
-0.0134277
-0.0134277
-0.0132751
-0.0135803
-0.0135803
-0.0144958
-0.0146484
-0.0154114
-0.0160217
-0.0166321
-0.017395
-0.018158
-0.0184631
-0.0189209
-0.0189209
-0.0190735
-0.0187683
-0.0186157
-0.018158
-0.0180054
-0.0169373
-0.0164795
-0.0154114
-0.0144958
-0.0138855
-0.0131226
-0.0125122
-0.0120544
-0.0115967
-0.0119019
-0.0119019
-0.0123596
-0.0126648
-0.0126648
-0.0131226
-0.01297
-0.0131226
-0.0126648
-0.012207
-0.0111389
-0.0105286
-0.00915527
-0.00808716
-0.00701904
-0.00534058
-0.0038147
-0.00213623
-0.000610352
0.00183105
0.0038147
0.00610352
0.0088501
0.0114441
0.0140381
0.0166321
0.0195312
0.0224304
0.0257874
0.0288391
0.032959
0.0364685
0.0398254
0.0431824
0.0462341
0.0495911
0.0526428
0.0552368
0.057373
0.0593567
0.0611877
0.062561
0.0639343
0.0645447
0.0657654
0.0671387
0.0683594
0.0691223
0.0708008
0.0723267
0.0738525
0.0758362
0.0775146
0.0798035
0.08255
0.085144
0.0883484
0.0909424
0.0938416
0.0961304
0.0985718
0.100555
0.103302
0.105438
0.107422
0.109253
0.110779
0.111542
0.112457
0.11261
0.112457
0.111847
0.110321
0.108795
0.106659
0.103607
0.100861
0.0968933
0.092926
0.087738
0.0827026
0.0769043
0.070343
0.0642395
0.0567627
0.0500488
0.0430298
0.0357056
0.0285339
0.0215149
0.0141907
0.00732422
0.000457764
-0.00610352
-0.0125122
-0.0195312
-0.0257874
-0.032196
-0.0384521
-0.0447083
-0.0506592
-0.0561523
-0.06073
-0.0656128
-0.0697327
-0.0726318
-0.075531
-0.0776672
-0.0791931
-0.0801086
-0.0804138
-0.0810242
-0.0813293
-0.0810242
-0.0808716
-0.0802612
-0.0799561
-0.0796509
-0.0791931
-0.0788879
-0.0784302
-0.0782776
-0.078125
-0.0775146
-0.0769043
-0.0767517
-0.0758362
-0.0752258
-0.0743103
-0.0737
-0.0723267
-0.0715637
-0.0701904
-0.0697327
-0.0686646
-0.067749
-0.0669861
-0.065918
-0.0653076
-0.0646973
-0.0640869
-0.0639343
-0.0631714
-0.0630188
-0.0627136
-0.0616455
-0.0613403
-0.0605774
-0.059967
-0.0585938
-0.057373
-0.0559998
-0.0552368
-0.0538635
-0.0527954
-0.0517273
-0.0506592
-0.0497437
-0.0491333
-0.0492859
-0.0498962
-0.0509644
-0.0527954
-0.0549316
-0.0578308
-0.0605774
-0.0650024
-0.0686646
-0.0727844
-0.0769043
-0.0808716
-0.0845337
-0.0875854
-0.0894165
-0.0909424
-0.0907898
-0.0894165
-0.0863647
-0.0816345
-0.0749207
-0.0654602
-0.0532532
-0.0375366
-0.018158
0.00579834
0.0341797
0.0665283
0.103607
0.144958
0.190582
0.240021
0.293732
0.350647
0.411072
0.473633
0.537567
0.601501
0.664215
0.722961
0.77652
0.823059
0.861664
0.891113
0.910187
0.919952
0.918732
0.907593
0.885773
0.853424
0.811005
0.757904
0.695801
0.624695
0.547028
0.463257
0.375214
0.284882
0.193939
0.104218
0.0175476
-0.0642395
-0.139923
-0.207977
-0.266724
-0.316162
-0.35614
-0.385742
-0.405884
-0.417023
-0.419464
-0.414886
-0.403137
-0.38681
-0.365295
-0.340729
-0.313721
-0.284729
-0.254822
-0.22583
-0.197144
-0.169983
-0.145111
-0.122375
-0.102234
-0.0843811
-0.0701904
-0.0579834
-0.0486755
-0.0418091
-0.0370789
-0.0344849
-0.0331116
-0.0334167
-0.0352478
-0.0378418
-0.040741
-0.0442505
-0.0479126
-0.0514221
-0.0550842
-0.0579834
-0.0605774
-0.0627136
-0.0642395
-0.0653076
-0.0656128
-0.0656128
-0.0648499
-0.0637817
-0.0616455
-0.0598145
-0.0579834
-0.0552368
-0.0524902
-0.0498962
-0.0476074
-0.0454712
-0.0431824
-0.0413513
-0.0402832
-0.0392151
-0.0387573
-0.0382996
-0.0387573
-0.0382996
-0.0387573
-0.0392151
-0.0396729
-0.0398254
-0.0401306
-0.0404358
-0.040741
-0.0410461
-0.0408936
-0.0408936
-0.0410461
-0.0410461
-0.0410461
-0.0405884
-0.0405884
-0.040741
-0.040741
-0.040741
-0.0405884
-0.0402832
-0.0398254
-0.0398254
-0.0389099
-0.0384521
-0.0375366
-0.0372314
-0.0361633
-0.035553
-0.0346375
-0.0340271
-0.0332642
-0.0328064
-0.0320435
-0.0315857
-0.0314331
-0.0312805
-0.0306702
-0.030365
-0.0296021
-0.0286865
-0.0276184
-0.0265503
-0.0248718
-0.0231934
-0.0218201
-0.0201416
-0.0183105
-0.0164795
-0.0146484
-0.0132751
-0.0115967
-0.0102234
-0.00930786
-0.00854492
-0.00808716
-0.00732422
-0.00808716
-0.00839233
-0.00900269
-0.00976562
-0.010376
-0.0108337
-0.0117493
-0.0120544
-0.012207
-0.012207
-0.0119019
-0.0115967
-0.0108337
-0.0108337
-0.0102234
-0.00991821
-0.00930786
-0.00869751
-0.00839233
-0.00808716
-0.00717163
-0.0062561
-0.00549316
-0.00396729
-0.00305176
-0.00198364
-0.000762939
0.000610352
0.00213623
0.00335693
0.0050354
0.00671387
0.00808716
0.00976562
0.0109863
0.0125122
0.0137329
0.014801
0.0157166
0.0170898
0.0177002
0.018158
0.0189209
0.019989
0.0205994
0.0216675
0.0228882
0.0238037
0.0248718
0.0262451
0.0276184
0.0283813
0.0302124
0.0314331
0.0331116
0.0349426
0.0366211
0.0378418
0.0392151
0.0398254
0.040741
0.0415039
0.0422668
0.0431824
0.0440979
0.045166
0.0460815
0.0476074
0.0492859
0.0500488
0.0517273
0.0532532
0.0544739
0.0558472
0.0575256
0.0582886
0.059967
0.0608826
0.0619507
0.063324
0.0636292
0.0648499
0.065918
0.0672913
0.0680542
0.0694275
0.0709534
0.0721741
0.0737
0.0750732
0.0762939
0.0776672
0.0784302
0.0793457
0.0802612
0.0804138
0.0811768
0.0813293
0.0814819
0.0810242
0.0808716
0.0805664
0.0802612
0.0799561
0.0796509
0.0793457
0.0790405
0.0790405
0.0788879
0.0790405
0.0790405
0.0791931
0.0790405
0.0788879
0.0784302
0.0778198
0.0765991
0.0750732
0.0727844
0.0704956
0.0675964
0.0648499
0.0614929
0.0578308
0.0538635
0.0498962
0.0457764
0.0418091
0.0382996
0.0346375
0.0306702
0.0274658
0.0238037
0.019989
0.0163269
0.01297
0.00930786
0.00549316
0.00152588
-0.00244141
-0.00732422
-0.0117493
-0.0158691
-0.019989
-0.0236511
-0.0267029
-0.030365
-0.0334167
-0.0366211
-0.0398254
-0.0431824
-0.0465393
-0.0497437
-0.0521851
-0.0552368
-0.0576782
-0.0605774
-0.0628662
-0.0648499
-0.0668335
-0.0682068
-0.0694275
-0.0701904
-0.070343
-0.0700378
-0.0697327
-0.0695801
-0.0683594
-0.0680542
-0.0669861
-0.065918
-0.0653076
-0.0643921
-0.0637817
-0.0631714
-0.0631714
-0.0631714
-0.0636292
-0.0645447
-0.0654602
-0.0668335
-0.0680542
-0.0694275
-0.0708008
-0.0726318
-0.0740051
-0.0752258
-0.0758362
-0.0770569
-0.0775146
-0.0775146
-0.0776672
-0.0778198
-0.0775146
-0.0772095
-0.0764465
-0.0756836
-0.0749207
-0.0740051
-0.072937
-0.0723267
-0.0714111
-0.070343
-0.0695801
-0.068512
-0.0675964
-0.0662231
-0.0646973
-0.063324
-0.0619507
-0.0605774
-0.0593567
-0.058136
-0.0572205
-0.0567627
-0.0567627
-0.0567627
-0.0570679
-0.0576782
-0.0582886
-0.0590515
-0.059967
-0.0605774
-0.0610352
-0.0614929
-0.0624084
-0.0622559
-0.0617981
-0.0613403
-0.0608826
-0.0602722
-0.0592041
-0.0579834
-0.0558472
-0.0549316
-0.0531006
-0.0517273
-0.0500488
-0.0486755
-0.0474548
-0.0465393
-0.0454712
-0.0444031
-0.0434875
-0.042572
-0.0416565
-0.040741
-0.0395203
-0.0386047
-0.0376892
-0.0363159
-0.0350952
-0.0344849
-0.0331116
-0.0317383
-0.0311279
-0.0300598
-0.0289917
-0.0283813
-0.0279236
-0.0279236
-0.0273132
-0.0268555
-0.0268555
-0.0271606
-0.0268555
-0.0271606
-0.0271606
-0.0271606
-0.0271606
-0.0273132
-0.0276184
-0.0279236
-0.0283813
-0.0285339
-0.0285339
-0.0289917
-0.0292969
-0.0297546
-0.0302124
-0.0302124
-0.0300598
-0.0299072
-0.0288391
-0.0283813
-0.0271606
-0.0260925
-0.0250244
-0.0233459
-0.0218201
-0.0202942
-0.0190735
-0.0178528
-0.0169373
-0.0167847
-0.0163269
-0.0166321
-0.0169373
-0.0184631
-0.0195312
-0.0209045
-0.0222778
-0.0236511
-0.0254822
-0.0274658
-0.0289917
-0.0305176
-0.0317383
-0.0331116
-0.0340271
-0.03479
-0.0354004
-0.0352478
-0.0352478
-0.0354004
-0.0343323
-0.0341797
-0.0338745
-0.0337219
-0.0338745
-0.0337219
-0.0332642
-0.0334167
-0.0332642
-0.0334167
-0.0331116
-0.0331116
-0.0328064
-0.0323486
-0.0317383
-0.0315857
-0.0315857
-0.0314331
-0.0314331
-0.0317383
-0.0320435
-0.0328064
-0.0335693
-0.0346375
-0.0354004
-0.0364685
-0.0376892
-0.0386047
-0.0398254
-0.0404358
-0.040741
-0.0411987
-0.0413513
-0.0415039
-0.0410461
-0.0405884
-0.039978
-0.0393677
-0.0384521
-0.038147
-0.0364685
-0.035553
-0.0349426
-0.03479
-0.0338745
-0.0338745
-0.0335693
-0.0331116
-0.0328064
-0.0323486
-0.0317383
-0.0311279
-0.0309753
-0.0305176
-0.0299072
-0.0299072
-0.0302124
-0.030365
-0.030365
-0.030365
-0.0305176
-0.0302124
-0.0299072
-0.0292969
-0.0289917
-0.0285339
-0.0273132
-0.0257874
-0.0241089
-0.0222778
-0.0195312
-0.0167847
-0.0128174
-0.00976562
-0.00549316
-0.00167847
0.00228882
0.00640869
0.0102234
0.0137329
0.017395
0.0205994
0.0233459
0.0257874
0.0279236
0.0289917
0.0299072
0.0309753
0.0306702
0.0306702
0.030365
0.030365
0.0305176
0.0312805
0.0311279
0.0323486
0.0335693
0.0350952
0.0366211
0.0390625
0.0413513
0.0445557
0.0486755
0.0523376
0.0570679
0.0622559
0.0666809
0.0720215
0.0765991
0.08255
0.087738
0.0923157
0.0971985
0.101166
0.104675
0.107574
0.109253
0.110016
0.110321
0.1091
0.106964
0.104218
0.100861
0.096283
0.0914001
0.0865173
0.0810242
0.0747681
0.0683594
0.0624084
0.0553894
0.0486755
0.0421143
0.0358582
0.0296021
0.0231934
0.0172424
0.0105286
0.00442505
-0.00167847
-0.00793457
-0.0143433
-0.0209045
-0.0273132
-0.0332642
-0.0401306
-0.0462341
-0.0526428
-0.0582886
-0.0640869
-0.0691223
-0.0735474
-0.078125
-0.0819397
-0.085144
-0.0875854
-0.0898743
-0.0912476
-0.0924683
-0.0930786
-0.0938416
-0.0942993
-0.0946045
-0.0947571
-0.0949097
-0.0953674
-0.0950623
-0.0952148
-0.0947571
-0.0944519
-0.0942993
-0.0933838
-0.0924683
-0.0917053
-0.091095
-0.0894165
-0.0888062
-0.087738
-0.0866699
-0.0860596
-0.0852966
-0.0846863
-0.0842285
-0.0839233
-0.0843811
-0.0846863
-0.0852966
-0.0857544
-0.0860596
-0.0865173
-0.0872803
-0.0875854
-0.0874329
-0.0874329
-0.0872803
-0.0869751
-0.0863647
-0.0854492
-0.0843811
-0.0830078
-0.0816345
-0.0805664
-0.0791931
-0.078125
-0.0770569
-0.0756836
-0.0740051
-0.072937
-0.0714111
-0.0706482
-0.0697327
-0.0697327
-0.0700378
-0.0714111
-0.0727844
-0.0752258
-0.0779724
-0.0816345
-0.0849915
-0.0888062
-0.0920105
-0.0953674
-0.0975037
-0.0987244
-0.0993347
-0.0984192
-0.0958252
-0.0918579
-0.0849915
-0.0756836
-0.0637817
-0.0474548
-0.027771
-0.00411987
0.0236511
0.0552368
0.0914001
0.130615
0.173798
0.22049
0.270691
0.323639
0.380402
0.438232
0.497589
0.556946
0.613556
0.666351
0.714264
0.755615
0.788574
0.812988
0.827942
0.834351
0.830994
0.818939
0.797882
0.767365
0.727844
0.679626
0.622864
0.557709
0.486908
0.410004
0.32959
0.24765
0.164948
0.0845337
0.00747681
-0.065918
-0.133057
-0.193787
-0.246429
-0.291595
-0.328064
-0.357056
-0.37735
-0.390015
-0.396118
-0.395813
-0.39032
-0.380859
-0.367432
-0.351105
-0.332489
-0.311737
-0.290527
-0.26825
-0.245361
-0.223083
-0.200958
-0.180359
-0.160522
-0.14267
-0.126343
-0.111847
-0.0999451
-0.0895691
-0.0814819
-0.0753784
-0.0706482
-0.0674438
-0.0654602
-0.0648499
-0.0646973
-0.0656128
-0.0666809
-0.0683594
-0.0698853
-0.0714111
-0.0726318
-0.0738525
-0.0747681
-0.0750732
-0.075531
-0.0756836
-0.0752258
-0.0744629
-0.0740051
-0.0735474
-0.0726318
-0.0721741
-0.0715637
-0.0709534
-0.0706482
-0.070343
-0.0697327
-0.0697327
-0.0698853
-0.0698853
-0.0704956
-0.0704956
-0.0706482
-0.0700378
-0.0697327
-0.0692749
-0.0683594
-0.0675964
-0.0666809
-0.065918
-0.0650024
-0.0640869
-0.0634766
-0.062561
-0.0621033
-0.0611877
-0.0601196
-0.0593567
-0.0582886
-0.0569153
-0.0552368
-0.0540161
-0.0523376
-0.0505066
-0.0486755
-0.0466919
-0.0454712
-0.0431824
-0.0422668
-0.0410461
-0.0401306
-0.0398254
-0.0395203
-0.039978
-0.0404358
-0.0411987
-0.0413513
-0.0424194
-0.0428772
-0.0439453
-0.0444031
-0.0448608
-0.0453186
-0.0457764
-0.0454712
-0.0454712
-0.0453186
-0.0444031
-0.0434875
-0.0424194
-0.0415039
-0.0408936
-0.0392151
-0.0379944
-0.0370789
-0.0357056
-0.0343323
-0.032959
-0.0315857
-0.030365
-0.0292969
-0.027771
-0.0263977
-0.0254822
-0.0245667
-0.0236511
-0.022583
-0.0222778
-0.0210571
-0.0204468
-0.0201416
-0.0193787
-0.0186157
-0.0187683
-0.0180054
-0.0178528
-0.0169373
-0.0170898
-0.0161743
-0.0151062
-0.0134277
-0.0123596
-0.0105286
-0.00854492
-0.00686646
-0.00457764
-0.00335693
-0.00152588
0.000152588
0.00152588
0.00244141
0.00320435
0.0038147
0.00442505
0.00427246
0.00442505
0.00442505
0.00396729
0.00411987
0.00411987
0.00396729
0.0038147
0.00396729
0.0038147
0.00427246
0.00411987
0.00488281
0.00518799
0.00595093
0.00640869
0.00762939
0.00823975
0.00976562
0.0106812
0.0119019
0.0134277
0.014801
0.0166321
0.0183105
0.0201416
0.0218201
0.0242615
0.0267029
0.0289917
0.0311279
0.0338745
0.0364685
0.0386047
0.0404358
0.0427246
0.0444031
0.0460815
0.0471497
0.0485229
0.0498962
0.0508118
0.0511169
0.0517273
0.0520325
0.0527954
0.0527954
0.0531006
0.0534058
0.0543213
0.0547791
0.0553894
0.0558472
0.0563049
0.0566101
0.0570679
0.0576782
0.0579834
0.0582886
0.0588989
0.0593567
0.0598145
0.0602722
0.0610352
0.0613403
0.0621033
0.0627136
0.063324
0.0646973
0.0654602
0.0666809
0.0669861
0.0672913
0.0674438
0.0672913
0.0671387
0.0666809
0.0656128
0.0643921
0.0630188
0.0605774
0.0587463
0.0569153
0.0547791
0.052948
0.0509644
0.0491333
0.0476074
0.0463867
0.045166
0.0444031
0.043335
0.0421143
0.0405884
0.0396729
0.0378418
0.0361633
0.0343323
0.0315857
0.0288391
0.0256348
0.0219727
0.0180054
0.0140381
0.00930786
0.00534058
0.000610352
-0.00411987
-0.00808716
-0.0128174
-0.017395
-0.0215149
-0.0248718
-0.0289917
-0.0328064
-0.035553
-0.0387573
-0.0413513
-0.0437927
-0.0462341
-0.0483704
-0.0502014
-0.0518799
-0.0535583
-0.0549316
-0.0556946
-0.0564575
-0.0572205
-0.0579834
-0.0590515
-0.0596619
-0.0605774
-0.0608826
-0.0617981
-0.062561
-0.0636292
-0.0640869
-0.0646973
-0.0654602
-0.065918
-0.0666809
-0.0669861
-0.0675964
-0.0680542
-0.068512
-0.0682068
-0.0680542
-0.0672913
-0.065918
-0.065155
-0.0637817
-0.062561
-0.0608826
-0.0595093
-0.0582886
-0.0572205
-0.0566101
-0.0569153
-0.0567627
-0.057373
-0.0582886
-0.0588989
-0.0596619
-0.0605774
-0.0614929
-0.0624084
-0.0631714
-0.0634766
-0.0642395
-0.0642395
-0.0643921
-0.0643921
-0.0639343
-0.063324
-0.0624084
-0.0613403
-0.0601196
-0.0593567
-0.0584412
-0.0572205
-0.0561523
-0.0544739
-0.0531006
-0.0518799
-0.0500488
-0.0485229
-0.0473022
-0.0460815
-0.0448608
-0.0434875
-0.042572
-0.0413513
-0.0404358
-0.0401306
-0.0396729
-0.0389099
-0.0389099
-0.0387573
-0.0389099
-0.0395203
-0.0396729
-0.0402832
-0.0405884
-0.0402832
-0.0401306
-0.0395203
-0.0387573
-0.037384
-0.0360107
-0.0341797
-0.032196
-0.0299072
-0.0276184
-0.0253296
-0.0230408
-0.0210571
-0.0193787
-0.0175476
-0.0163269
-0.0154114
-0.0151062
-0.0152588
-0.0151062
-0.0154114
-0.0160217
-0.0161743
-0.0166321
-0.0172424
-0.0180054
-0.0183105
-0.0190735
-0.0193787
-0.0193787
-0.0193787
-0.0192261
-0.0186157
-0.0183105
-0.0177002
-0.0170898
-0.0161743
-0.0154114
-0.014801
-0.0134277
-0.0125122
-0.0112915
-0.00961304
-0.00823975
-0.00656128
-0.00488281
-0.00335693
-0.00198364
-0.000610352
0.000457764
0.00167847
0.00259399
0.00320435
0.0038147
0.00350952
0.00320435
0.00259399
0.00167847
0.00106812
0.000152588
-0.00106812
-0.00167847
-0.00274658
-0.00350952
-0.00396729
-0.00411987
-0.00457764
-0.00457764
-0.00473022
-0.00442505
-0.00457764
-0.00427246
-0.00396729
-0.0038147
-0.00366211
-0.00335693
-0.00320435
-0.00274658
-0.00289917
-0.00289917
-0.00228882
-0.00244141
-0.00228882
-0.00167847
-0.0012207
-0.00106812
-0.000305176
0.000457764
0.000915527
0.00167847
0.00167847
0.00213623
0.00198364
0.00228882
0.00167847
0.00106812
0.0
-0.000457764
-0.00183105
-0.00228882
-0.00350952
-0.00366211
-0.00366211
-0.00473022
-0.00457764
-0.00473022
-0.00473022
-0.00427246
-0.00442505
-0.00427246
-0.0038147
-0.0038147
-0.00305176
-0.00274658
-0.00228882
-0.00213623
-0.00213623
-0.00259399
-0.00320435
-0.00411987
-0.00473022
-0.00564575
-0.0062561
-0.00671387
-0.00686646
-0.00732422
-0.00793457
-0.00808716
-0.00854492
-0.00900269
-0.00930786
-0.00961304
-0.00930786
-0.00915527
-0.00900269
-0.00900269
-0.0088501
-0.00869751
-0.00839233
-0.00793457
-0.00686646
-0.00595093
-0.00427246
-0.00228882
-0.000457764
0.00183105
0.00411987
0.00747681
0.00991821
0.0131226
0.0158691
0.0187683
0.0222778
0.0256348
0.0289917
0.0325012
0.0357056
0.0392151
0.0419617
0.0450134
0.04776
0.0506592
0.0535583
0.0566101
0.0587463
0.0614929
0.0639343
0.0666809
0.0688171
0.0708008
0.0732422
0.0752258
0.0767517
0.0779724
0.0791931
0.0796509
0.080719
0.0814819
0.0822449
0.0839233
0.0852966
0.0875854
0.0891113
0.0920105
0.0941467
0.0968933
0.10025
0.10376
0.106506
0.109863
0.112762
0.114899
0.116882
0.117188
0.117645
0.117188
0.115967
0.113373
0.110779
0.107727
0.104523
0.100403
0.0958252
0.091095
0.0865173
0.0810242
0.0758362
0.0698853
0.0640869
0.0578308
0.0514221
0.0450134
0.0387573
0.0326538
0.0260925
0.0201416
0.0135803
0.00747681
0.00152588
-0.00488281
-0.0109863
-0.0170898
-0.0231934
-0.0288391
-0.0341797
-0.0389099
-0.0437927
-0.0482178
-0.0523376
-0.0556946
-0.0588989
-0.0614929
-0.0639343
-0.065918
-0.0674438
-0.0686646
-0.0700378
-0.0708008
-0.0717163
-0.0721741
-0.072937
-0.072937
-0.072937
-0.0727844
-0.0720215
-0.0717163
-0.071106
-0.0700378
-0.0686646
-0.0682068
-0.0666809
-0.0657654
-0.0648499
-0.0637817
-0.0628662
-0.0621033
-0.0614929
-0.0613403
-0.0604248
-0.0605774
-0.059967
-0.0592041
-0.0579834
-0.0575256
-0.0563049
-0.0549316
-0.0531006
-0.0520325
-0.0498962
-0.0483704
-0.0468445
-0.0453186
-0.043335
-0.0419617
-0.040741
-0.039978
-0.0389099
-0.0387573
-0.0382996
-0.0378418
-0.0376892
-0.037384
-0.0370789
-0.0369263
-0.0370789
-0.0370789
-0.0379944
-0.0392151
-0.0405884
-0.0430298
-0.0460815
-0.0492859
-0.0523376
-0.0564575
-0.0601196
-0.0636292
-0.0671387
-0.0701904
-0.0723267
-0.0738525
-0.0741577
-0.0723267
-0.0700378
-0.0656128
-0.0592041
-0.0502014
-0.0389099
-0.025177
-0.00701904
0.0140381
0.0390625
0.067749
0.100708
0.137177
0.177155
0.220795
0.267181
0.31662
0.369568
0.425262
0.482788
0.541229
0.59906
0.655365
0.707092
0.753479
0.792694
0.823059
0.844879
0.856476
0.858917
0.852509
0.836487
0.811462
0.777283
0.733185
0.680695
0.620422
0.552216
0.478058
0.399933
0.318909
0.236359
0.155182
0.0758362
0.000762939
-0.0688171
-0.132751
-0.188904
-0.237274
-0.277557
-0.30899
-0.332336
-0.348206
-0.356293
-0.358276
-0.354614
-0.345612
-0.332642
-0.316467
-0.297394
-0.276794
-0.254974
-0.232239
-0.209351
-0.186615
-0.164948
-0.144501
-0.125427
-0.10849
-0.0935364
-0.0798035
-0.0691223
-0.0598145
-0.052948
-0.0476074
-0.0439453
-0.0419617
-0.0408936
-0.0408936
-0.0413513
-0.0427246
-0.0437927
-0.0453186
-0.0465393
-0.0469971
-0.0480652
-0.0485229
-0.0483704
-0.0486755
-0.0483704
-0.0474548
-0.0468445
-0.045929
-0.0453186
-0.0448608
-0.0442505
-0.0437927
-0.0434875
-0.0431824
-0.043335
-0.0430298
-0.0428772
-0.0424194
-0.0421143
-0.0411987
-0.0401306
-0.0393677
-0.038147
-0.037384
-0.0363159
-0.0354004
-0.0341797
-0.0332642
-0.0323486
-0.0314331
-0.030365
-0.0297546
-0.0286865
-0.0279236
-0.0268555
-0.025177
-0.0245667
-0.0231934
-0.0219727
-0.0205994
-0.0192261
-0.0183105
-0.0170898
-0.0167847
-0.0166321
-0.0167847
-0.0170898
-0.0169373
-0.0177002
-0.0180054
-0.0186157
-0.0192261
-0.019989
-0.0204468
-0.020752
-0.0215149
-0.0216675
-0.0216675
-0.0215149
-0.0215149
-0.0209045
-0.0196838
-0.0186157
-0.0169373
-0.0151062
-0.0134277
-0.0114441
-0.00976562
-0.00778198
-0.00656128
-0.00518799
-0.00411987
-0.00320435
-0.00213623
-0.0012207
-0.000305176
0.000915527
0.00183105
0.00244141
0.00366211
0.00473022
0.0050354
0.00549316
0.00579834
0.00564575
0.00579834
0.00534058
0.00549316
0.00488281
0.00442505
0.00350952
0.00350952
0.00274658
0.00274658
0.00274658
0.00259399
0.00274658
0.0038147
0.00488281
0.00656128
0.00839233
0.0100708
0.0123596
0.0141907
0.0167847
0.0192261
0.0213623
0.0233459
0.0256348
0.0268555
0.0279236
0.0285339
0.0292969
0.0292969
0.0294495
0.0289917
0.0288391
0.0285339
0.0280762
0.027771
0.027771
0.0276184
0.0280762
0.0282288
0.0288391
0.0297546
0.030365
0.0315857
0.0326538
0.0343323
0.0354004
0.0370789
0.0386047
0.0398254
0.0418091
0.0431824
0.045166
0.0468445
0.0489807
0.0509644
0.0526428
0.0547791
0.0569153
0.0588989
0.0604248
0.0613403
0.0627136
0.0642395
0.0646973
0.0656128
0.0665283
0.0672913
0.0675964
0.0675964
0.068512
0.0686646
0.0692749
0.0697327
0.0709534
0.0715637
0.0720215
0.072937
0.0740051
0.0753784
0.0758362
0.0770569
0.0779724
0.0787354
0.0794983
0.0798035
0.0801086
0.080719
0.0808716
0.0817871
0.0820923
0.0830078
0.0840759
0.0857544
0.0869751
0.0886536
0.0904846
0.0923157
0.0941467
0.09552
0.0968933
0.0978088
0.0984192
0.098877
0.0993347
0.0990295
0.0987244
0.098114
0.0967407
0.0952148
0.0935364
0.0914001
0.0886536
0.0863647
0.0836182
0.0811768
0.0784302
0.0758362
0.0730896
0.0708008
0.0674438
0.0645447
0.0617981
0.0585938
0.0552368
0.0520325
0.0482178
0.0447083
0.0411987
0.0378418
0.0341797
0.0305176
0.0273132
0.0239563
0.0205994
0.017395
0.0143433
0.0111389
0.00793457
0.00427246
0.0012207
-0.00228882
-0.00595093
-0.00961304
-0.0134277
-0.0172424
-0.020752
-0.0242615
-0.0279236
-0.0311279
-0.0338745
-0.0364685
-0.0384521
-0.0408936
-0.0421143
-0.0430298
-0.0440979
-0.0444031
-0.0445557
-0.0444031
-0.0447083
-0.0448608
-0.0445557
-0.0447083
-0.0450134
-0.0454712
-0.0462341
-0.0468445
-0.0474548
-0.0483704
-0.0491333
-0.0500488
-0.0509644
-0.0520325
-0.052948
-0.0537109
-0.0546265
-0.0553894
-0.0556946
-0.0559998
-0.0567627
-0.0569153
-0.057373
-0.0578308
-0.0584412
-0.0585938
-0.0587463
-0.0590515
-0.0592041
-0.0590515
-0.0585938
-0.0579834
-0.0572205
-0.0563049
-0.0549316
-0.0540161
-0.0524902
-0.0514221
-0.0502014
-0.0486755
-0.0480652
-0.0463867
-0.0460815
-0.0456238
-0.0453186
-0.0456238
-0.0456238
-0.0462341
-0.0469971
-0.04776
-0.0485229
-0.0495911
-0.050354
-0.0506592
-0.0506592
-0.0508118
-0.0500488
-0.0492859
-0.0480652
-0.0468445
-0.0456238
-0.0440979
-0.0421143
-0.0402832
-0.0386047
-0.0372314
-0.0352478
-0.0335693
-0.0315857
-0.0297546
-0.0271606
-0.0254822
-0.0233459
-0.0218201
-0.019989
-0.0184631
-0.0169373
-0.0160217
-0.0152588
-0.0143433
-0.0138855
-0.01297
-0.0128174
-0.0125122
-0.012207
-0.0126648
-0.01297
-0.0132751
-0.0143433
-0.0146484
-0.014801
-0.0157166
-0.015564
-0.0157166
-0.0158691
-0.0152588
-0.0144958
-0.0134277
-0.012207
-0.010376
-0.00900269
-0.00762939
-0.00640869
-0.00518799
-0.00442505
-0.00411987
-0.00366211
-0.00320435
-0.00335693
-0.00335693
-0.00350952
-0.0038147
-0.00396729
-0.00457764
-0.00518799
-0.00564575
-0.00610352
-0.00732422
-0.00808716
-0.00946045
-0.0106812
-0.0114441
-0.0126648
-0.0135803
-0.0144958
-0.0152588
-0.0158691
-0.0164795
-0.0169373
-0.0172424
-0.0170898
-0.017395
-0.0169373
-0.0164795
-0.0158691
-0.014801
-0.0137329
-0.0126648
-0.0105286
-0.00915527
-0.00747681
-0.0050354
-0.0038147
-0.00274658
-0.0012207
-0.000457764
0.000152588
0.000457764
0.000915527
0.000915527
0.00106812
0.00106812
0.000915527
0.000610352
0.000610352
0.000152588
0.000152588
-0.000457764
-0.000762939
-0.00167847
-0.00274658
-0.00366211
-0.00473022
-0.00564575
-0.00701904
-0.00854492
-0.0102234
-0.0114441
-0.01297
-0.0134277
-0.0143433
-0.015564
-0.0157166
-0.0160217
-0.0158691
-0.0158691
-0.0152588
-0.0146484
-0.0138855
-0.0132751
-0.012207
-0.0120544
-0.0112915
-0.0114441
-0.0114441
-0.0115967
-0.012207
-0.0123596
-0.0132751
-0.0144958
-0.0151062
-0.0157166
-0.0167847
-0.0177002
-0.018158
-0.0184631
-0.0186157
-0.0187683
-0.0183105
-0.018158
-0.0180054
-0.0177002
-0.017395
-0.0169373
-0.0163269
-0.0161743
-0.0160217
-0.0160217
-0.015564
-0.0149536
-0.0146484
-0.0140381
-0.0135803
-0.0126648
-0.0119019
-0.0112915
-0.0102234
-0.00946045
-0.00854492
-0.00793457
-0.00701904
-0.00579834
-0.00457764
-0.00320435
-0.00137329
-0.000457764
0.000610352
0.00198364
0.00335693
0.00518799
0.00686646
0.00915527
0.0108337
0.0135803
0.0160217
0.0195312
0.0230408
0.0260925
0.0299072
0.0334167
0.0370789
0.0404358
0.0444031
0.0476074
0.0506592
0.0532532
0.055542
0.0579834
0.0604248
0.0621033
0.0639343
0.0654602
0.0671387
0.0689697
0.0704956
0.0721741
0.0744629
0.0759888
0.0779724
0.0796509
0.0816345
0.0840759
0.0866699
0.0892639
0.0914001
0.0939941
0.0961304
0.098114
0.100098
0.101929
0.10437
0.106201
0.108185
0.109863
0.111542
0.112915
0.113678
0.114441
0.114288
0.113525
0.112152
0.110321
0.108185
0.105591
0.102234
0.0982666
0.0935364
0.0891113
0.0837708
0.0776672
0.0712585
0.0646973
0.0575256
0.0502014
0.0427246
0.0354004
0.0282288
0.0210571
0.0138855
0.00717163
0.000457764
-0.0062561
-0.0126648
-0.0195312
-0.0260925
-0.0326538
-0.0386047
-0.0450134
-0.0509644
-0.0559998
-0.0608826
-0.0650024
-0.0683594
-0.0712585
-0.0730896
-0.0747681
-0.0756836
-0.0761414
-0.0764465
-0.0765991
-0.0767517
-0.0764465
-0.0764465
-0.0762939
-0.0764465
-0.0762939
-0.0770569
-0.0776672
-0.0776672
-0.0782776
-0.0790405
-0.0791931
-0.0799561
-0.0801086
-0.0801086
-0.080719
-0.0811768
-0.0816345
-0.0823975
-0.0828552
-0.083313
-0.0836182
-0.0831604
-0.0828552
-0.0820923
-0.0816345
-0.0805664
-0.0799561
-0.0790405
-0.0775146
-0.0756836
-0.0741577
-0.0723267
-0.0701904
-0.0680542
-0.0648499
-0.062561
-0.0596619
-0.057373
-0.0549316
-0.0523376
-0.0511169
-0.0497437
-0.0486755
-0.0482178
-0.0485229
-0.0494385
-0.0502014
-0.0518799
-0.0541687
-0.0572205
-0.0598145
-0.0637817
-0.0679016
-0.0715637
-0.0758362
-0.0794983
-0.0830078
-0.0863647
-0.0895691
-0.0912476
-0.0926208
-0.092926
-0.0920105
-0.0900269
-0.085907
-0.0808716
-0.0735474
-0.0637817
-0.0509644
-0.0349426
-0.0151062
0.0088501
0.0372314
0.0695801
0.106354
0.147247
0.191956
0.240631
0.293121
0.349426
0.40802
0.469055
0.532074
0.59433
