0.535583
0.535583
0.535583
0.535889
0.535583
0.535889
0.535889
0.536194
0.536194
0.536194
0.535583
0.536194
0.535278
0.535889
0.535889
0.535889
0.536499
0.536194
0.535889
0.535583
0.535889
0.535889
0.536499
0.536499
0.535583
0.535583
0.536194
0.536499
0.536804
0.536499
0.536194
0.536499
0.535889
0.536194
0.536194
0.535889
0.535583
0.536194
0.535583
0.535583
0.536194
0.535889
0.535278
0.535583
0.536499
0.536194
0.535889
0.536499
0.536194
0.536804
0.536194
0.536194
0.536804
0.535583
0.535889
0.536194
0.535889
0.536194
0.536194
0.536194
0.536499
0.535889
0.535889
0.536499
0.535889
0.535889
0.536804
0.535889
0.536499
0.536194
0.536194
0.536194
0.535889
0.535583
0.536499
0.536499
0.535278
0.536499
0.535889
0.535889
0.536194
0.535583
0.536194
0.536194
0.535583
0.535889
0.536499
0.535889
0.537109
0.536194
0.536194
0.536194
0.536499
0.536194
0.536804
0.536194
0.535889
0.535889
0.536499
0.536194
0.535889
0.536804
0.535583
0.535583
0.535583
0.536194
0.536194
0.535889
0.536194
0.535889
0.536194
0.535889
0.535889
0.535889
0.535583
0.535583
0.535583
0.536194
0.535889
0.535889
0.535583
0.535889
0.535278
0.535278
0.535583
0.535583
0.536194
0.535889
0.535889
0.536499
0.535583
0.535583
0.535889
0.535278
0.535583
0.535889
0.536804
0.535583
0.536194
0.535889
0.536194
0.536194
0.535889
0.536194
0.536499
0.536499
0.537109
0.535889
0.536194
0.536499
0.536194
0.536499
0.536194
0.536499
0.535583
0.536194
0.536194
0.536804
0.536499
0.537109
0.536194
0.536804
0.535889
0.536194
0.536499
0.536499
0.536194
0.536499
0.536194
0.537109
0.536499
0.535889
0.536194
0.535889
0.536194
0.536804
0.536499
0.536499
0.537109
0.536804
0.536194
0.535889
0.535889
0.536194
0.536499
0.536499
0.536499
0.537109
0.536194
0.536194
0.536804
0.536499
0.536194
0.536499
0.535889
0.535889
0.535583
0.535583
0.536194
0.535889
0.537109
0.535889
0.536194
0.535889
0.536194
0.536194
0.536804
0.536499
0.536804
0.536194
0.536804
0.536499
0.535583
0.537109
0.536194
0.535889
0.536499
0.536499
0.536194
0.536499
0.536499
0.536194
0.535889
0.535583
0.536499
0.536499
0.536194
0.536194
0.536499
0.536499
0.537109
0.535583
0.535889
0.536194
0.536194
0.535889
0.536194
0.537109
0.536499
0.535889
0.537109
0.536194
0.536499
0.536499
0.535889
0.536499
0.536194
0.536499
0.537109
0.537109
0.536804
0.536499
0.536499
0.536499
0.537109
0.536499
0.536804
0.535889
0.536194
0.536194
0.536804
0.536804
0.537109
0.537109
0.535889
0.536499
0.536804
0.537109
0.536804
0.537109
0.537109
0.537109
0.536499
0.536804
0.263062
0.26001
0.256653
0.25238
0.249329
0.246277
0.24292
0.240173
0.235901
0.233459
0.231018
0.227356
0.224609
0.221252
0.218201
0.215454
0.212402
0.209656
0.206604
0.203857
0.201721
0.197754
0.195618
0.192261
0.190125
0.187378
0.184937
0.181885
0.179443
0.177307
0.174561
0.172424
0.169373
0.168152
0.165405
0.162659
0.161133
0.158997
0.156555
0.154419
0.152283
0.149841
0.148926
0.146484
0.144348
0.142517
0.140381
0.138855
0.137939
0.134583
0.133362
0.130615
0.1297
0.128479
0.126343
0.125122
0.122986
0.121155
0.119934
0.118103
0.116577
0.114746
0.11261
0.110779
0.108948
0.108032
0.105896
0.104065
0.102234
0.101013
0.0997925
0.0979614
0.0967407
0.0949097
0.0939941
0.0921631
0.0909424
0.0894165
0.0878906
0.0869751
0.085144
0.0839233
0.0830078
0.0808716
0.0796509
0.0802612
0.0790405
0.0775146
0.0765991
0.0750732
0.0744629
0.072937
0.0723267
0.0704956
0.0701904
0.0698853
0.0686646
0.0683594
0.0665283
0.065918
0.0646973
0.0640869
0.0637817
0.0628662
0.0613403
0.06073
0.0601196
0.0595093
0.0588989
0.0576782
0.057373
0.0579834
0.057373
0.0570679
0.0558472
0.0561523
0.0561523
0.055542
0.055542
0.0546265
0.0546265
0.0546265
0.0543213
0.0543213
0.0540161
0.0534058
0.0543213
0.0537109
0.0540161
0.0524902
0.0531006
0.0531006
0.0534058
0.0534058
0.0531006
0.0537109
0.0537109
0.0527954
0.0531006
0.0537109
0.0537109
0.0534058
0.0531006
0.0527954
0.0524902
0.0527954
0.0531006
0.0527954
0.0537109
0.0537109
0.0537109
0.0531006
0.0527954
0.0534058
0.0534058
0.0540161
0.0531006
0.0540161
0.0537109
0.0537109
0.0537109
0.0537109
0.0543213
0.0543213
0.0540161
0.0537109
0.0537109
0.0534058
0.0527954
0.0531006
0.0534058
0.0527954
0.0524902
0.0524902
0.0527954
0.0524902
0.0518799
0.0521851
0.0515747
0.0509644
0.0515747
0.0515747
0.0509644
0.0506592
0.050354
0.050354
0.050354
0.050354
0.050354
0.0497437
0.0491333
0.0500488
0.0500488
0.0494385
0.0494385
0.0494385
0.0491333
0.0494385
0.0491333
0.0497437
0.0491333
0.0488281
0.0497437
0.0497437
0.0500488
0.0500488
0.0512695
0.0509644
0.0512695
0.0521851
0.0524902
0.0531006
0.0540161
0.0546265
0.0558472
0.0564575
0.0576782
0.0585938
0.0592041
0.0613403
0.0622559
0.0640869
0.0653076
0.0671387
0.0695801
0.0708008
0.0732422
0.0762939
0.0796509
0.0808716
0.0842285
0.0872803
0.0915527
0.0952148
0.0997925
0.104065
0.109558
0.115051
0.120239
0.126953
0.133362
0.140381
0.148315
0.15625
0.16449
0.17334
0.183411
0.193176
0.202637
0.213318
0.224915
0.237122
0.248718
0.261841
0.274963
0.288696
0.302734
0.317383
0.332947
0.348816
0.36499
0.381775
0.398254
0.415344
0.43335
0.45105
0.46936
0.488892
0.507812
0.527344
0.547485
0.567322
0.588379
0.608215
0.628662
0.649719
0.671082
0.691833
0.712891
0.734558
0.756226
0.777283
0.798035
0.819092
0.840149
0.861816
0.882874
0.903625
0.924072
0.944214
0.964661
0.985107
1.00494
1.02539
1.04462
1.06354
1.08246
1.10138
1.1203
1.138
1.1554
1.1731
1.19019
1.20636
1.22253
1.2384
1.25336
1.26953
1.28296
1.297
1.31073
1.32477
1.33667
1.34918
1.36078
1.37207
1.38367
1.39374
1.40381
1.41296
1.42242
1.43005
1.4386
1.44592
1.45325
1.45966
1.46545
1.47095
1.47583
1.48041
1.4856
1.48926
1.492
1.49536
1.4975
1.49902
1.50208
1.50208
1.50299
1.50391
1.50421
1.50391
1.50238
1.50146
1.49994
1.49902
1.49689
1.49414
1.49109
1.48834
1.48468
1.48132
1.47766
1.47339
1.46912
1.46423
1.45966
1.45477
1.44897
1.4444
1.4389
1.4328
1.42639
1.41998
1.41357
1.40717
1.40045
1.39374
1.38702
1.37909
1.37207
1.36505
1.35803
1.3504
1.34338
1.33545
1.32782
1.31989
1.31195
1.30432
1.29639
1.28906
1.28113
1.2735
1.26465
1.25732
1.24939
1.24054
1.2323
1.22345
1.21674
1.2085
1.20056
1.19293
1.185
1.17645
1.16913
1.16119
1.15265
1.14471
1.13708
1.12946
1.12183
1.11389
1.10657
1.09863
1.09161
1.08459
1.07727
1.06995
1.06262
1.0556
1.04889
1.04187
1.03516
1.02783
1.02112
1.01349
1.00708
0.999756
0.992737
0.986328
0.979004
0.972595
0.965576
0.959167
0.951843
0.945129
0.939026
0.932007
0.925293
0.918274
0.911255
0.905151
0.898132
0.891418
0.884705
0.877075
0.870667
0.863953
0.857544
0.85022
0.843506
0.836182
0.829163
0.821838
0.815125
0.808105
0.799866
0.793762
0.785828
0.778809
0.771484
0.764771
0.756226
0.749512
0.743103
0.735474
0.727844
0.72052
0.713196
0.705261
0.697937
0.690308
0.682678
0.675659
0.66803
0.661316
0.654297
0.646362
0.639648
0.632935
0.626221
0.619812
0.613098
0.606384
0.599976
0.593872
0.587463
0.581665
0.575256
0.569153
0.563354
0.557556
0.552063
0.545959
0.540771
0.535889
0.531616
0.526123
0.521851
0.516968
0.513611
0.509338
0.505371
0.502319
0.498657
0.494995
0.491943
0.489197
0.486755
0.483704
0.481262
0.478516
0.476379
0.474548
0.472412
0.470581
0.46814
0.467834
0.466309
0.465393
0.464172
0.463562
0.462341
0.462036
0.461121
0.461731
0.461121
0.460815
0.461426
0.461121
0.460815
0.462036
0.461731
0.462952
0.463562
0.464478
0.464783
0.467529
0.46814
0.468445
0.469666
0.471191
0.472107
0.473022
0.475159
0.476379
0.477295
0.479736
0.480652
0.481873
0.484314
0.485229
0.486755
0.487976
0.490112
0.491943
0.493469
0.49469
0.497131
0.498657
0.499878
0.501099
0.503235
0.504761
0.506592
0.508118
0.509949
0.510864
0.512695
0.513916
0.514221
0.516052
0.516968
0.518188
0.518799
0.520325
0.520935
0.521851
0.522461
0.523071
0.524597
0.524292
0.525208
0.525818
0.526428
0.526733
0.527649
0.527649
0.526733
0.527649
0.527954
0.527039
0.525818
0.526428
0.525208
0.525208
0.524292
0.523987
0.523071
0.522766
0.52124
0.520325
0.518799
0.517883
0.515137
0.514221
0.512085
0.51178
0.509949
0.507812
0.506287
0.504761
0.502014
0.500183
0.497437
0.494995
0.492249
0.490112
0.487671
0.484314
0.481873
0.479736
0.47699
0.472717
0.470276
0.467529
0.463867
0.46051
0.457458
0.454407
0.450134
0.447998
0.44342
0.440369
0.437012
0.433044
0.429688
0.426636
0.422974
0.419006
0.41626
0.411377
0.40802
0.404663
0.401001
0.397644
0.393372
0.389404
0.386353
0.381775
0.378723
0.374146
0.370483
0.366516
0.363159
0.359192
0.355225
0.351562
0.348206
0.344543
0.340271
0.336609
0.333252
0.329285
0.324707
0.320435
0.316772
0.313416
0.309753
0.305786
0.302429
0.297852
0.29541
0.291138
0.28656
0.282898
0.279236
0.276184
0.273438
0.269775
0.265808
0.262451
0.259705
0.256042
0.252075
0.249329
0.246277
0.24231
0.239563
0.236206
0.232849
0.230103
0.227051
0.223389
0.220337
0.217896
0.214539
0.211487
0.208435
0.205688
0.202332
0.200195
0.196838
0.194397
0.191956
0.189209
0.186768
0.183105
0.18158
0.178223
0.174866
0.173035
0.170898
0.167236
0.16449
0.163269
0.160522
0.158081
0.155945
0.153503
0.150452
0.149231
0.14679
0.144958
0.142212
0.140991
0.13855
0.136108
0.133667
0.131836
0.129395
0.128174
0.125427
0.123596
0.121765
0.119324
0.118103
0.115662
0.113525
0.111694
0.110474
0.109253
0.107117
0.105286
0.103455
0.102234
0.0997925
0.0985718
0.0976562
0.0949097
0.0939941
0.0927734
0.0909424
0.0897217
0.088501
0.0866699
0.085144
0.0842285
0.0830078
0.0811768
0.0799561
0.0799561
0.0790405
0.0778198
0.0769043
0.0756836
0.0747681
0.0738525
0.0726318
0.0701904
0.0698853
0.0689697
0.0686646
0.0674438
0.065918
0.0650024
0.0646973
0.0643921
0.062561
0.0622559
0.0622559
0.0616455
0.06073
0.0601196
0.0598145
0.0588989
0.0588989
0.0579834
0.0582886
0.0567627
0.0567627
0.0564575
0.055542
0.0549316
0.0543213
0.0543213
0.0534058
0.0537109
0.0537109
0.0537109
0.0534058
0.0521851
0.0524902
0.0524902
0.0524902
0.0518799
0.0518799
0.0509644
0.0512695
0.0509644
0.0512695
0.050354
0.0497437
0.0497437
0.0494385
0.0491333
0.0491333
0.0488281
0.0485229
0.0488281
0.0485229
0.0476074
0.0476074
0.0485229
0.0485229
0.0479126
0.0479126
0.0482178
0.0479126
0.0479126
0.0473022
0.0482178
0.0476074
0.0476074
0.0482178
0.0476074
0.0479126
0.0485229
0.0485229
0.0485229
0.0485229
0.0485229
0.0488281
0.0488281
0.0485229
0.0482178
0.0494385
0.0494385
0.0497437
0.0491333
0.0494385
0.0491333
0.0491333
0.0491333
0.0491333
0.0494385
0.0488281
0.0494385
0.0494385
0.0494385
0.0494385
0.0491333
0.050354
0.0500488
0.0506592
0.0500488
0.050354
0.050354
0.0506592
0.0509644
0.050354
0.0506592
0.0509644
0.050354
0.0509644
0.0506592
0.050354
0.0506592
0.0506592
0.050354
0.0506592
0.0509644
0.050354
0.0509644
0.0506592
0.0506592
0.0506592
0.0512695
0.0515747
0.0509644
0.0512695
0.0515747
0.0518799
0.0515747
0.0515747
0.0518799
0.0524902
0.0531006
0.0534058
0.0534058
0.0546265
0.0549316
0.0558472
0.0564575
0.0567627
0.0576782
0.0585938
0.0604248
0.0613403
0.062561
0.0637817
0.0653076
0.065918
0.0683594
0.0701904
0.072937
0.0744629
0.0765991
0.0799561
0.0820923
0.0854492
0.0891113
0.0930786
0.0964355
0.101013
0.105591
0.110779
0.115967
0.12207
0.126953
0.133362
0.140076
0.147095
0.154724
0.162048
0.170898
0.179749
0.188599
0.198364
0.209351
0.219727
0.231323
0.24292
0.254822
0.267639
0.280762
0.294495
0.308838
0.323181
0.338745
0.354004
0.368958
0.385437
0.403442
0.420532
0.437317
0.455322
0.473328
0.491943
0.510559
0.530396
0.549927
0.569763
0.59021
0.610046
0.629883
0.650635
0.671082
0.691833
0.712585
0.733337
0.753784
0.774536
0.795593
0.816345
0.836792
0.857544
0.877991
0.898743
0.918884
0.939941
0.959778
0.979614
0.999146
1.01837
1.0376
1.05621
1.07513
1.09344
1.11053
1.12823
1.14563
1.16241
1.17889
1.19507
1.21094
1.2262
1.24146
1.2558
1.26984
1.28357
1.297
1.30981
1.32294
1.33453
1.34613
1.35742
1.3681
1.37878
1.38824
1.39618
1.40533
1.41388
1.42151
1.42883
1.43616
1.44226
1.44806
1.45386
1.45813
1.46271
1.46729
1.47095
1.4743
1.47766
1.4798
1.48132
1.48285
1.48438
1.48499
1.4856
1.4856
1.48529
1.48468
1.48315
1.48102
1.47949
1.47705
1.47491
1.47217
1.4682
1.46545
1.46179
1.45782
1.45325
1.44928
1.44409
1.43951
1.43433
1.42883
1.42242
1.41632
1.41144
1.40503
1.39832
1.39252
1.38519
1.37817
1.37146
1.36475
1.35803
1.3504
1.34338
1.33514
1.32843
1.32019
1.31348
1.30493
1.297
1.28876
1.28143
1.27228
1.26495
1.25732
1.24847
1.24054
1.23169
1.22345
1.21613
1.20758
1.19965
1.19171
1.18317
1.17432
1.16699
1.15936
1.15082
1.14288
1.13556
1.12762
1.11938
1.11176
1.10352
1.09558
1.08887
1.08063
1.073
1.06537
1.05865
1.05103
1.0434
1.03638
1.02875
1.02203
1.01471
1.00769
1.00037
0.993652
0.986633
0.979004
0.97168
0.965576
0.958252
0.950623
0.944214
0.93689
0.930176
0.923767
0.916748
0.910034
0.902405
0.896301
0.889587
0.882263
0.875549
0.86853
0.861511
0.855103
0.847778
0.841675
0.834045
0.826721
0.819397
0.813293
0.805969
0.798035
0.791931
0.783997
0.777893
0.770874
0.763245
0.756836
0.749512
0.742798
0.735168
0.72876
0.721436
0.714111
0.706482
0.699768
0.692139
0.68573
0.678406
0.670776
0.664368
0.656738
0.65033
0.6427
0.635681
0.628357
0.622864
0.615845
0.608826
0.602417
0.596008
0.589905
0.584412
0.577393
0.571899
0.566406
0.560303
0.555115
0.549011
0.544128
0.538025
0.533752
0.528564
0.523987
0.52002
0.516052
0.511475
0.507812
0.503845
0.500793
0.496216
0.493469
0.489502
0.487366
0.484009
0.480957
0.479736
0.4776
0.474854
0.472412
0.470581
0.468445
0.46814
0.466919
0.465393
0.464172
0.464172
0.463257
0.462341
0.462341
0.461731
0.461121
0.460815
0.460815
0.460815
0.461731
0.461426
0.462341
0.462952
0.463257
0.465088
0.465088
0.466309
0.467834
0.469055
0.471191
0.472107
0.473938
0.475464
0.477905
0.479431
0.480957
0.482178
0.484314
0.48645
0.487671
0.490417
0.492554
0.49408
0.496216
0.497742
0.499268
0.502014
0.503845
0.505981
0.507812
0.510254
0.510559
0.513306
0.514832
0.517578
0.519714
0.520935
0.522766
0.524292
0.526123
0.527954
0.529175
0.530701
0.531616
0.532837
0.534973
0.535583
0.537109
0.53894
0.539246
0.540161
0.540466
0.541382
0.542908
0.543213
0.543518
0.544128
0.544434
0.543823
0.544739
0.544739
0.544434
0.543823
0.543213
0.543213
0.542908
0.542603
0.541077
0.540771
0.539856
0.539246
0.53772
0.537415
0.535583
0.534363
0.533142
0.532227
0.529785
0.52887
0.526428
0.524597
0.522461
0.52063
0.518799
0.515442
0.513611
0.511169
0.508423
0.506592
0.50354
0.501099
0.498352
0.495911
0.492859
0.490417
0.487061
0.484619
0.480957
0.477905
0.474854
0.471497
0.46814
0.464783
0.461731
0.457764
0.454712
0.45105
0.448303
0.443726
0.440674
0.437317
0.433044
0.430603
0.427551
0.422974
0.419006
0.41626
0.411987
0.408936
0.405884
0.401611
0.398254
0.393372
0.390625
0.387268
0.383911
0.379639
0.376587
0.37262
0.368347
0.365295
0.361328
0.358276
0.354919
0.350952
0.34729
0.344238
0.340271
0.337219
0.333252
0.32959
0.326538
0.32196
0.319519
0.314941
0.31189
0.308838
0.305176
0.301819
0.299072
0.295105
0.291748
0.288696
0.28595
0.282898
0.279846
0.276489
0.273743
0.270386
0.267639
0.263977
0.261536
0.258179
0.255432
0.252686
0.249329
0.247192
0.243835
0.241089
0.238342
0.235901
0.233765
0.230103
0.227661
0.225525
0.223083
0.220032
0.21759
0.215149
0.211792
0.210571
0.207214
0.205383
0.203247
0.2005
0.197449
0.196228
0.192871
0.19104
0.188904
0.185852
0.183411
0.180969
0.178223
0.176392
0.17395
0.172119
0.170288
0.167847
0.165405
0.162964
0.162048
0.159302
0.158081
0.156555
0.154114
0.152588
0.150146
0.148926
0.146484
0.144958
0.143738
0.142212
0.139465
0.138245
0.136719
0.134583
0.133667
0.131836
0.1297
0.127869
0.126953
0.125732
0.123901
0.122375
0.120544
0.119324
0.117493
0.115356
0.115356
0.113831
0.112
0.110474
0.109558
0.108032
0.106506
0.105591
0.104675
0.10376
0.102234
0.101013
0.0997925
0.0994873
0.0979614
0.0961304
0.09552
0.0946045
0.0939941
0.0924683
0.0915527
0.0909424
0.090332
0.090332
0.0891113
0.088501
0.0878906
0.0869751
0.0869751
0.0860596
0.0854492
0.0845337
0.0836182
0.0836182
0.0827026
0.0823975
0.0817871
0.0808716
0.0811768
0.0805664
0.0799561
0.0799561
0.0796509
0.0796509
0.0796509
0.0796509
0.0799561
0.0796509
0.0793457
0.0790405
0.0790405
0.0793457
0.078125
0.0784302
0.0784302
0.0790405
0.0784302
0.078125
0.0772095
0.0775146
0.0775146
0.0787354
0.0778198
0.0787354
0.0784302
0.0790405
0.0784302
0.0784302
0.0787354
0.0790405
0.0790405
0.0793457
0.0793457
0.0802612
0.0799561
0.0799561
0.0799561
0.0799561
0.0796509
0.0793457
0.0793457
0.0799561
0.0799561
0.0799561
0.0796509
0.0805664
0.0805664
0.0802612
0.0799561
0.0796509
0.0799561
0.0799561
0.0796509
0.0796509
0.0796509
0.0796509
0.0802612
0.0796509
0.0793457
0.0802612
0.0799561
0.0796509
0.0793457
0.0790405
0.0799561
0.0799561
0.0790405
0.0790405
0.0787354
0.0784302
0.0784302
0.0787354
0.078125
0.0784302
0.078125
0.0772095
0.0775146
0.0784302
0.0769043
0.0772095
0.0765991
0.0762939
0.0762939
0.0765991
0.0753784
0.0753784
0.0756836
0.0747681
0.0750732
0.0753784
0.0747681
0.0750732
0.0744629
0.0756836
0.0750732
0.0744629
0.0750732
0.0747681
0.0744629
0.0747681
0.0747681
0.0750732
0.0759888
0.0753784
0.0759888
0.0759888
0.0775146
0.078125
0.0775146
0.0787354
0.0790405
0.0790405
0.0799561
0.0808716
0.0823975
0.0836182
0.0854492
0.0869751
0.0881958
0.0900269
0.0918579
0.0942993
0.0967407
0.0991821
0.102234
0.10498
0.107727
0.111389
0.115662
0.119324
0.123291
0.127869
0.132751
0.137634
0.143127
0.148926
0.155029
0.161743
0.168762
0.177002
0.184937
0.193481
0.202332
0.212402
0.222473
0.232239
0.24292
0.255127
0.266418
0.279541
0.290527
0.30426
0.317993
0.331421
0.34668
0.361328
0.377808
0.393372
0.409851
0.427246
0.44342
0.461121
0.478821
0.498047
0.516968
0.535278
0.554199
0.574341
0.594177
0.614014
0.63324
0.653687
0.673828
0.69519
0.714722
0.735168
0.756836
0.778198
0.797729
0.818787
0.839233
0.860291
0.880432
0.900879
0.921631
0.941162
0.960999
0.980835
1.00128
1.0199
1.03943
1.05804
1.07666
1.09436
1.11267
1.12946
1.14746
1.16425
1.18042
1.1972
1.21246
1.22803
1.24329
1.25793
1.27167
1.2854
1.29913
1.31195
1.32416
1.33514
1.34735
1.35834
1.36902
1.37878
1.38916
1.39709
1.40625
1.41418
1.42242
1.42914
1.43616
1.44348
1.44867
1.45569
1.45905
1.46362
1.46759
1.47217
1.47552
1.47766
1.48041
1.48224
1.48346
1.48499
1.48529
1.48621
1.4856
1.4856
1.4856
1.48346
1.48254
1.48071
1.47888
1.47675
1.47339
1.47064
1.46729
1.46393
1.46088
1.4566
1.45203
1.44806
1.44318
1.43799
1.43311
1.42792
1.42181
1.41571
1.40961
1.40381
1.39679
1.39099
1.38397
1.37695
1.37115
1.36383
1.35681
1.34979
1.34125
1.33392
1.32629
1.31897
1.31165
1.3028
1.29517
1.28693
1.27869
1.27136
1.26312
1.25519
1.24756
1.23871
1.23138
1.22253
1.2146
1.20605
1.19873
1.18988
1.18225
1.17432
1.16577
1.15845
1.1496
1.14105
1.13251
1.12457
1.11633
1.10901
1.10046
1.09253
1.08582
1.07666
1.06934
1.0614
1.05377
1.04553
1.03729
1.03027
1.02295
1.01379
1.00616
0.999146
0.991821
0.983582
0.975647
0.968933
0.960693
0.954285
0.947266
0.939331
0.932312
0.925293
0.917358
0.910339
0.90332
0.896606
0.888672
0.882263
0.875549
0.868225
0.860901
0.853882
0.846863
0.838623
0.832214
0.82489
0.817261
0.810852
0.803528
0.795593
0.78949
0.782776
0.774841
0.768433
0.760803
0.754395
0.747375
0.739746
0.732422
0.725403
0.716858
0.709839
0.702515
0.69458
0.687561
0.680237
0.672302
0.665283
0.657349
0.65033
0.643921
0.636292
0.629883
0.622864
0.615845
0.608826
0.601807
0.595703
0.588989
0.582886
0.576477
0.570984
0.564575
0.559387
0.552979
0.548096
0.542603
0.537109
0.531921
0.527344
0.523071
0.517883
0.514526
0.509949
0.506287
0.503235
0.499573
0.495911
0.492554
0.489502
0.486755
0.483398
0.481262
0.479736
0.477295
0.475464
0.473633
0.471802
0.470581
0.469666
0.468445
0.467224
0.466614
0.465698
0.465393
0.465088
0.464783
0.464783
0.464783
0.464783
0.465393
0.465088
0.466003
0.465393
0.466919
0.467529
0.467834
0.46875
0.470276
0.470886
0.473022
0.473938
0.476685
0.477905
0.478821
0.480042
0.482788
0.484619
0.48645
0.488892
0.490112
0.493164
0.49469
0.498047
0.499268
0.501404
0.504456
0.506287
0.509033
0.51178
0.513916
0.516052
0.517883
0.520935
0.523376
0.525208
0.527954
0.53009
0.532532
0.534668
0.536804
0.538635
0.540771
0.542908
0.544434
0.546875
0.548096
0.549622
0.551758
0.553894
0.55481
0.55603
0.557556
0.559082
0.559387
0.561218
0.561523
0.562744
0.563049
0.563354
0.56366
0.563354
0.563354
0.563049
0.563354
0.563049
0.562134
0.562744
0.562134
0.560913
0.561218
0.559998
0.559082
0.558167
0.556946
0.555725
0.554199
0.553589
0.552063
0.550537
0.548706
0.54718
0.545044
0.542908
0.540466
0.53894
0.537109
0.534058
0.532227
0.53009
0.527344
0.525208
0.522461
0.519409
0.516968
0.514221
0.51239
0.508423
0.505676
0.50293
0.500793
0.497437
0.494385
0.491333
0.487366
0.484924
0.481567
0.478821
0.474854
0.471802
0.468445
0.465393
0.462952
0.458679
0.456543
0.452271
0.448608
0.445557
0.4422
0.437622
0.43457
0.431213
0.428162
0.423889
0.420227
0.417175
0.413208
0.409546
0.406189
0.402222
0.39917
0.395508
0.392151
0.387878
0.384827
0.382385
0.378418
0.374756
0.370789
0.368042
0.364685
0.361328
0.357971
0.354004
0.350037
0.34668
0.342712
0.340271
0.336914
0.332947
0.328674
0.326233
0.323181
0.319214
0.316162
0.313416
0.309753
0.306702
0.30365
0.299988
0.297852
0.294189
0.290833
0.287781
0.284729
0.281067
0.278625
0.275269
0.272217
0.269165
0.266724
0.263977
0.261536
0.258179
0.256348
0.252686
0.250244
0.247498
0.245056
0.241699
0.239563
0.236816
0.233765
0.231628
0.228577
0.22644
0.224304
0.221558
0.218811
0.217285
0.214233
0.211792
0.209656
0.20813
0.205688
0.203552
0.201111
0.199585
0.196838
0.195312
0.193787
0.191956
0.190125
0.187988
0.186462
0.184326
0.18219
0.180359
0.179138
0.177002
0.175781
0.173645
0.172119
0.171509
0.169067
0.167847
0.166626
0.1651
0.163879
0.162659
0.160828
0.159607
0.158691
0.157166
0.155334
0.154724
0.152893
0.152588
0.150757
0.149536
0.149231
0.147095
0.146484
0.144653
0.144043
0.142822
0.140686
0.140076
0.13916
0.138855
0.137329
0.135498
0.134277
0.133667
0.132446
0.131226
0.1297
0.127563
0.126953
0.126343
0.124512
0.124512
0.122681
0.121765
0.120544
0.119934
0.119324
0.118408
0.117188
0.115967
0.115967
0.115051
0.113831
0.112915
0.111694
0.112
0.110779
0.110474
0.109558
0.109253
0.108948
0.108032
0.107422
0.106812
0.106201
0.106812
0.105591
0.105286
0.10498
0.10498
0.10498
0.104065
0.103455
0.103455
0.102539
0.102539
0.102539
0.102234
0.102234
0.102234
0.101318
0.101929
0.101929
0.101929
0.101318
0.101624
0.101013
0.101624
0.101929
0.101929
0.101013
0.101624
0.101624
0.101929
0.101929
0.102539
0.102539
0.101318
0.101624
0.102844
0.102844
0.103455
0.104065
0.10437
0.10437
0.10498
0.105591
0.105286
0.105896
0.106201
0.106812
0.106506
0.107422
0.107727
0.108948
0.109558
0.108948
0.109863
0.109863
0.110474
0.110779
0.111084
0.111389
0.11261
0.11261
0.113831
0.112915
0.113525
0.113525
0.113525
0.113831
0.114136
0.113525
0.114136
0.113831
0.114136
0.113831
0.113525
0.113831
0.114441
0.113831
0.11322
0.113525
0.112305
0.113525
0.112915
0.112915
0.112305
0.11322
0.11261
0.112915
0.11261
0.112305
0.111694
0.111084
0.111389
0.111084
0.111084
0.109863
0.110474
0.110474
0.110168
0.110474
0.109558
0.109863
0.110474
0.110474
0.109863
0.110474
0.110474
0.110779
0.111084
0.111084
0.111389
0.112
0.112
0.11261
0.112915
0.113525
0.114136
0.114746
0.115356
0.115662
0.117188
0.118103
0.119019
0.120544
0.121155
0.12207
0.123901
0.125427
0.126953
0.128784
0.130615
0.133057
0.136414
0.13855
0.141296
0.144653
0.148621
0.152588
0.15625
0.160522
0.165405
0.169678
0.175476
0.18219
0.188293
0.194092
0.200806
0.209351
0.217896
0.22522
0.23468
0.243835
0.253296
0.263367
0.274963
0.285645
0.297852
0.309143
0.32196
0.335388
0.348816
0.363464
0.377808
0.393066
0.40802
0.423889
0.439453
0.455627
0.473022
0.490417
0.507202
0.525513
0.543518
0.561829
0.58136
0.600281
0.619202
0.639038
0.658264
0.678406
0.698547
0.718079
0.738831
0.759277
0.779114
0.798645
0.818481
0.840149
0.859375
0.879822
0.899963
0.918884
0.938721
0.958252
0.977173
0.997314
1.01562
1.03485
1.05255
1.07117
1.08887
1.10596
1.12366
1.14075
1.15723
1.1731
1.18927
1.20483
1.21948
1.23474
1.24878
1.26282
1.27594
1.28906
1.30249
1.315
1.32599
1.3382
1.34949
1.35956
1.37024
1.37878
1.38885
1.39709
1.40594
1.41418
1.42151
1.42853
1.43463
1.44104
1.44684
1.45111
1.45569
1.46057
1.46484
1.46759
1.47125
1.474
1.47614
1.47888
1.4801
1.48071
1.48163
1.48163
1.48193
1.48224
1.48163
1.4798
1.47827
1.47705
1.47461
1.47186
1.46912
1.46637
1.46301
1.45996
1.45569
1.45142
1.44775
1.44318
1.4389
1.43372
1.42853
1.42273
1.41693
1.41174
1.40442
1.39832
1.39221
1.3858
1.37909
1.37238
1.36536
1.35834
1.35071
1.34308
1.33636
1.32904
1.32172
1.31317
1.30524
1.2973
1.28967
1.28174
1.2738
1.26556
1.25732
1.24939
1.24115
1.23322
1.22437
1.21582
1.20819
1.19965
1.19141
1.18347
1.17493
1.16638
1.15845
1.15082
1.14166
1.13342
1.12579
1.11725
1.10962
1.10138
1.09344
1.08643
1.07758
1.07025
1.06171
1.05347
1.04645
1.03912
1.03088
1.02264
1.01624
1.00922
1.00006
0.993347
0.985718
0.978088
0.970459
0.96344
0.955811
0.948181
0.940552
0.933533
0.926514
0.918884
0.911255
0.903625
0.895996
0.889587
0.881653
0.874329
0.867615
0.85968
0.852356
0.844421
0.837402
0.830078
0.822449
0.81604
0.807495
0.799866
0.792236
0.784302
0.777588
0.769653
0.762024
0.755005
0.74707
0.738831
0.730896
0.723877
0.716858
0.708923
0.700684
0.692749
0.68573
0.679016
0.670776
0.664062
0.656738
0.65033
0.642395
0.635681
0.628052
0.621033
0.614319
0.608215
0.601501
0.594482
0.588074
0.582275
0.575562
0.569153
0.563965
0.558777
0.553894
0.548096
0.542603
0.538025
0.533142
0.529785
0.524292
0.52063
0.516052
0.512695
0.509949
0.505981
0.502319
0.499268
0.495911
0.493164
0.490723
0.488281
0.48584
0.484619
0.481567
0.481262
0.479126
0.478516
0.476685
0.476379
0.475464
0.474854
0.474243
0.473938
0.473938
0.473938
0.474548
0.474243
0.475769
0.476379
0.47699
0.47821
0.479736
0.480042
0.481262
0.483093
0.484314
0.486145
0.487061
0.489502
0.490723
0.492554
0.494995
0.497131
0.499268
0.501404
0.503845
0.505676
0.508423
0.510559
0.51239
0.515442
0.518494
0.52124
0.523682
0.526428
0.52948
0.531921
0.534363
0.537109
0.539856
0.542603
0.545654
0.547791
0.551147
0.553589
0.555725
0.558167
0.559998
0.562439
0.565186
0.567627
0.569153
0.571594
0.57373
0.575562
0.578003
0.579834
0.58197
0.584106
0.585022
0.586548
0.588074
0.588989
0.59082
0.591431
0.593262
0.593872
0.594788
0.595703
0.596008
0.596924
0.597534
0.59845
0.597534
0.598755
0.598755
0.59845
0.59906
0.59845
0.597839
0.597839
0.598145
0.596924
0.595398
0.596008
0.594788
0.593567
0.592651
0.592041
0.590515
0.589294
0.588074
0.586243
0.585022
0.583191
0.58136
0.580444
0.578003
0.575562
0.57373
0.571289
0.569458
0.567017
0.564575
0.561829
0.559692
0.556335
0.554199
0.551147
0.548401
0.546265
0.543213
0.540466
0.537415
0.534668
0.531311
0.528259
0.525208
0.523071
0.518494
0.515442
0.51178
0.509338
0.505676
0.502014
0.498962
0.494995
0.491943
0.488281
0.484924
0.481567
0.4776
0.474854
0.471191
0.467529
0.464172
0.461426
0.457458
0.453796
0.45105
0.446472
0.443726
0.439758
0.436096
0.432129
0.429382
0.42572
0.421448
0.418701
0.415344
0.411072
0.40741
0.403748
0.401001
0.397034
0.393677
0.389709
0.386963
0.382996
0.379639
0.376587
0.372925
0.368958
0.366516
0.362549
0.359192
0.355835
0.352173
0.349121
0.345764
0.343628
0.340271
0.336609
0.333557
0.330811
0.327759
0.325317
0.321655
0.318909
0.316162
0.31311
0.310669
0.307617
0.304871
0.300903
0.297852
0.296326
0.292969
0.290527
0.288696
0.285034
0.283508
0.281372
0.277405
0.275879
0.273743
0.271606
0.269775
0.267029
0.264893
0.262146
0.26001
0.257874
0.255127
0.252991
0.250854
0.249023
0.246887
0.244751
0.242615
0.241089
0.239563
0.237122
0.235291
0.233154
0.231628
0.231018
0.228577
0.22644
0.224915
0.223083
0.220947
0.219727
0.217285
0.215759
0.215149
0.212708
0.210571
0.209351
0.207214
0.206909
0.205078
0.203247
0.201721
0.2005
0.19928
0.197754
0.196838
0.194397
0.193481
0.192566
0.19165
0.19043
0.188904
0.187073
0.186157
0.185547
0.183716
0.183716
0.18158
0.180664
0.178833
0.178223
0.177307
0.177002
0.174866
0.174255
0.173035
0.172424
0.170593
0.169373
0.168457
0.167542
0.166931
0.164795
0.16449
0.163269
0.162659
0.161133
0.160828
0.158691
0.159302
0.157776
0.157166
0.155945
0.155029
0.154114
0.153503
0.153198
0.152283
0.150757
0.150146
0.149841
0.14801
0.14801
0.146484
0.146179
0.145569
0.145264
0.144653
0.144653
0.144348
0.143433
0.143433
0.142212
0.141602
0.141907
0.140991
0.140991
0.141296
0.140076
0.139771
0.139771
0.13916
0.13855
0.138855
0.138245
0.13855
0.138855
0.13916
0.13916
0.138855
0.13916
0.13855
0.138855
0.139771
0.139465
0.139771
0.13916
0.139465
0.138855
0.139465
0.13916
0.139465
0.139771
0.13916
0.138855
0.139465
0.13916
0.139465
0.139465
0.140076
0.139771
0.139771
0.140381
0.140076
0.140381
0.139771
0.140076
0.140076
0.140381
0.139771
0.13916
0.13916
0.139465
0.139771
0.139465
0.13855
0.138245
0.13855
0.137939
0.137939
0.137329
0.137024
0.136108
0.136414
0.136108
0.135498
0.135193
0.134888
0.133972
0.133667
0.133362
0.132446
0.132141
0.132141
0.132141
0.132141
0.131226
0.131836
0.130615
0.130615
0.131226
0.130615
0.130005
0.131531
0.130615
0.13092
0.131531
0.13031
0.130615
0.13092
0.131226
0.131531
0.13092
0.131531
0.131836
0.132141
0.132141
0.133057
0.133362
0.134583
0.135803
0.136719
0.137634
0.138855
0.140381
0.141907
0.142822
0.145569
0.146484
0.149231
0.151367
0.154114
0.15625
0.159302
0.162659
0.166626
0.170898
0.175171
0.179138
0.184021
0.190125
0.195312
0.202637
0.20874
0.215454
0.223389
0.231323
0.240173
0.249023
0.258484
0.26825
0.278625
0.289307
0.300903
0.312195
0.325012
0.338135
0.351868
0.366516
0.380249
0.395813
0.411682
0.426636
0.443115
0.4599
0.476685
0.49469
0.513
0.531311
0.549927
0.569153
0.588684
0.608215
0.628052
0.648804
0.668945
0.689392
0.709839
0.731506
0.752563
0.773926
0.795288
0.816345
0.837708
0.858765
0.881042
0.903015
0.923767
0.944519
0.965576
0.986938
1.00708
1.02692
1.04797
1.06812
1.08856
1.1084
1.12762
1.14655
1.16608
1.185
1.20392
1.2207
1.23871
1.25519
1.27258
1.28876
1.30463
1.32141
1.33606
1.3501
1.36505
1.37848
1.3913
1.40411
1.41693
1.42914
1.44073
1.45203
1.4621
1.47278
1.48254
1.49109
1.49933
1.50818
1.5152
1.52252
1.52924
1.53564
1.54144
1.54663
1.55151
1.55487
1.56006
1.56281
1.56647
1.56891
1.57074
1.57257
1.5741
1.57501
1.57593
1.57593
1.57593
1.57562
1.57471
1.57288
1.57135
1.56952
1.56677
1.56494
1.56158
1.55792
1.55518
1.5509
1.54572
1.54175
1.53717
1.5329
1.52771
1.52283
1.51733
1.51154
1.50635
1.49933
1.49353
1.48621
1.48041
1.47339
1.46606
1.45874
1.45172
1.44409
1.43677
1.42914
1.4212
1.41327
1.40533
1.3974
1.38916
1.38184
1.3739
1.36505
1.35742
1.34857
1.34064
1.33301
1.32416
1.31592
1.30707
1.29944
1.2912
1.28265
1.27472
1.26556
1.25793
1.24969
1.24146
1.23352
1.22498
1.21735
1.20911
1.20117
1.19354
1.185
1.17767
1.16913
1.1618
1.15295
1.14563
1.138
1.12976
1.12305
1.11572
1.10687
1.10016
1.09253
1.08521
1.07788
1.07025
1.06323
1.0556
1.04889
1.04095
1.03455
1.02631
1.02051
1.01196
1.00586
0.99823
0.990906
0.984497
0.976562
0.970154
0.96344
0.956421
0.948792
0.942688
0.935059
0.92804
0.921021
0.914612
0.907593
0.900574
0.894165
0.887146
0.879517
0.872192
0.865479
0.857849
0.850525
0.842896
0.836487
0.828857
0.821228
0.813599
0.806885
0.79895
0.791321
0.784302
0.776672
0.769043
0.762024
0.754089
0.746765
0.739136
0.731506
0.724487
0.716553
0.709839
0.70282
0.694885
0.687256
0.679932
0.673523
0.666199
0.658569
0.652771
0.646057
0.639648
0.63324
0.626831
0.621033
0.61554
0.609741
0.604248
0.597839
0.592346
0.586853
0.58197
0.576782
0.571594
0.567322
0.562744
0.558167
0.554504
0.550537
0.546875
0.542908
0.539856
0.537109
0.533447
0.531006
0.528259
0.525818
0.524292
0.520935
0.519409
0.517883
0.515747
0.514526
0.513
0.512085
0.510254
0.509338
0.508423
0.508728
0.507812
0.507507
0.508118
0.507507
0.507507
0.508118
0.507507
0.507812
0.507202
0.508423
0.508423
0.509033
0.509949
0.510864
0.511475
0.512085
0.513306
0.513916
0.515747
0.516968
0.518188
0.518799
0.519714
0.521851
0.523071
0.524902
0.526123
0.528564
0.529785
0.530701
0.532227
0.534058
0.536194
0.538025
0.539246
0.541687
0.543518
0.544739
0.546875
0.548096
0.550232
0.551453
0.554199
0.55481
0.556946
0.558167
0.559998
0.561218
0.563049
0.56427
0.565186
0.566711
0.567627
0.568237
0.569153
0.570679
0.570679
0.571594
0.57251
0.572815
0.57373
0.574036
0.574646
0.574646
0.575256
0.574951
0.574951
0.574646
0.574951
0.574341
0.573425
0.573425
0.572205
0.571289
0.569763
0.569153
0.567627
0.566406
0.565186
0.56366
0.561829
0.559998
0.558472
0.556641
0.554504
0.552368
0.550537
0.548096
0.546265
0.543518
0.539856
0.538635
0.535278
0.533447
0.53009
0.526733
0.524597
0.520935
0.519104
0.514832
0.512085
0.509033
0.505676
0.50293
0.498657
0.4953
0.492249
0.488281
0.484924
0.480957
0.477905
0.474548
0.46936
0.466614
0.462646
0.458984
0.455017
0.450745
0.447388
0.44342
0.439453
0.434875
0.432129
0.427856
0.423584
0.419617
0.415344
0.411682
0.407715
0.403137
0.398865
0.394897
0.39093
0.386658
0.383301
0.379028
0.374756
0.370789
0.367737
0.363159
0.359802
0.35553
0.351257
0.34729
0.343628
0.339966
0.335999
0.332031
0.328369
0.324402
0.32074
0.316772
0.313416
0.309448
0.305176
0.301819
0.298157
0.2948
0.290833
0.287781
0.284119
0.279846
0.276489
0.273743
0.269775
0.267334
0.263062
0.259399
0.256042
0.252991
0.249329
0.245972
0.242615
0.239563
0.236816
0.233154
0.230713
0.227051
0.223999
0.221252
0.218506
0.215149
0.211792
0.209351
0.206909
0.204163
0.200806
0.198059
0.195923
0.192871
0.189819
0.187073
0.184937
0.18158
0.179749
0.177307
0.174255
0.172119
0.169067
0.166931
0.164795
0.162048
0.160217
0.157776
0.155029
0.153198
0.151367
0.148926
0.14679
0.144958
0.143127
0.140991
0.138245
0.136719
0.135498
0.133057
0.13092
0.129395
0.127258
0.126343
0.124207
0.123291
0.120544
0.119324
0.118408
0.115967
0.115662
0.114136
0.11261
0.111694
0.110168
0.108337
0.106812
0.105896
0.10437
0.103149
0.102234
0.100708
0.0994873
0.098877
0.0979614
0.0961304
0.0958252
0.0942993
0.0946045
0.0921631
0.0915527
0.0906372
0.0897217
0.0894165
0.0881958
0.0869751
0.0866699
0.085144
0.0836182
0.0839233
0.0823975
0.0817871
0.0820923
0.0808716
0.0796509
0.0793457
0.0796509
0.0790405
0.0790405
0.0784302
0.078125
0.0778198
0.0772095
0.0765991
0.0762939
0.0756836
0.0753784
0.0744629
0.0744629
0.0744629
0.0738525
0.0738525
0.0735474
0.0732422
0.0732422
0.0732422
0.0735474
0.072937
0.072937
0.0723267
0.072937
0.0720215
0.0732422
0.072937
0.0732422
0.0732422
0.072937
0.0735474
0.0732422
0.0738525
0.0741577
0.0741577
0.0747681
0.0741577
0.0744629
0.0747681
0.0738525
0.0741577
0.0744629
0.0747681
0.0750732
0.0759888
0.0759888
0.0762939
0.0765991
0.0762939
0.0769043
0.0762939
0.0772095
0.0772095
0.078125
0.0787354
0.0787354
0.0796509
0.0796509
0.0796509
0.0805664
0.0805664
0.0808716
0.0811768
0.0823975
0.0827026
0.0836182
0.0839233
0.0839233
0.0848389
0.0848389
0.0857544
0.0857544
0.0857544
0.0866699
0.0872803
0.0875854
0.0875854
0.0878906
0.0888062
0.0888062
0.0894165
0.0897217
0.0897217
0.0900269
0.090332
0.0900269
0.0909424
0.0909424
0.0906372
0.0909424
0.0912476
0.0906372
0.0909424
0.0909424
0.0909424
0.0909424
0.0912476
0.0915527
0.0912476
0.0912476
0.0906372
0.0909424
0.0909424
0.090332
0.0912476
0.0912476
0.090332
0.0909424
0.0909424
0.0900269
0.0906372
0.090332
0.0900269
0.0894165
0.0897217
0.0894165
0.0891113
0.0894165
0.0897217
0.0897217
0.0897217
0.0897217
0.0900269
0.0900269
0.090332
0.0900269
0.0900269
0.0900269
0.0906372
0.0912476
0.0909424
0.0912476
0.0918579
0.0927734
0.0930786
0.0942993
0.0942993
0.09552
0.0970459
0.0979614
0.0994873
0.101013
0.101624
0.10376
0.105896
0.107422
0.109253
0.111389
0.114746
0.117493
0.119934
0.123901
0.126953
0.13031
0.134583
0.139465
0.144043
0.149536
0.155029
0.160217
0.166626
0.173645
0.180359
0.187988
0.195618
0.204468
0.213318
0.222473
0.232544
0.242615
0.253906
0.264587
0.276794
0.289612
0.302429
0.315552
0.328979
0.344238
0.358887
0.374756
0.390625
0.40741
0.423584
0.440979
0.458069
0.475769
0.49408
0.513306
0.532837
0.552368
0.571594
0.591736
0.612183
0.632324
0.653381
0.674744
0.695496
0.716858
0.738831
0.759888
0.78064
0.802002
0.823975
0.845337
0.866089
0.888062
0.909119
0.930786
0.952148
0.9729
0.993958
1.0141
1.03485
1.05499
1.07544
1.09497
1.11389
1.13342
1.15204
1.17096
1.18896
1.20697
1.22406
1.24146
1.25854
1.27411
1.28998
1.30493
1.3205
1.33453
1.34888
1.362
1.37482
1.38763
1.39984
1.41205
1.42334
1.43402
1.4444
1.45447
1.46393
1.47278
1.48132
1.48926
1.4975
1.50391
1.51093
1.51642
1.52283
1.52771
1.53198
1.53717
1.54083
1.54419
1.54663
1.54877
1.55121
1.55396
1.55487
1.55548
1.55609
1.5564
1.55609
1.55518
1.55457
1.55426
1.55151
1.54938
1.54694
1.54419
1.54144
1.53748
1.53503
1.53107
1.5271
1.52283
1.51794
1.51306
1.50757
1.50177
1.49719
1.49078
1.4856
1.47949
1.47247
1.46606
1.45935
1.45264
1.44592
1.4389
1.43066
1.42303
1.41541
1.40869
1.40015
1.39282
1.3855
1.37726
1.36993
1.3623
1.35376
1.34583
1.33759
1.32935
1.32172
1.31409
1.30554
1.297
1.28906
1.28052
1.27258
1.26404
1.25671
1.24786
1.24023
1.23169
1.22375
1.21552
1.20758
1.19995
1.19141
1.18408
1.17645
1.16882
1.1615
1.15356
1.14624
1.138
1.13129
1.12396
1.11694
1.10931
1.10199
1.09497
1.08765
1.08063
1.07422
1.06689
1.06018
1.05316
1.04614
1.03973
1.03302
1.02631
1.0199
1.01349
1.00677
0.999756
0.993347
0.986938
0.979614
0.9729
0.966797
0.960388
0.953064
0.946655
0.940857
0.933838
0.928345
0.921936
0.914612
0.907898
0.9021
0.895081
0.888367
0.881348
0.875549
0.86792
0.861206
0.853882
0.846863
0.839233
0.83313
0.824585
0.819092
0.812073
0.804443
0.796814
0.7901
0.78186
0.774841
0.767212
0.760498
0.752869
0.745544
0.73761
0.730896
0.722961
0.715942
0.708313
0.701294
0.69519
0.686951
0.679321
0.672607
0.666504
0.658569
0.652771
0.645752
0.638123
0.632935
0.626526
0.620422
0.613708
0.607605
0.601501
0.596619
0.589905
0.585022
0.578613
0.574341
0.568848
0.563354
0.559082
0.554504
0.550232
0.546265
0.542297
0.537415
0.534058
0.530701
0.527344
0.523682
0.520325
0.517273
0.514832
0.51178
0.509644
0.507202
0.504456
0.502319
0.500793
0.499878
0.498352
0.496216
0.496216
0.4953
0.493774
0.493774
0.493164
0.491943
0.491638
0.491943
0.491943
0.491028
0.491333
0.491333
0.492249
0.491943
0.492859
0.493774
0.493774
0.494385
0.495605
0.496216
0.496826
0.499268
0.500183
0.501099
0.502319
0.502625
0.504456
0.506897
0.507202
0.509644
0.510559
0.51178
0.513611
0.515137
0.515747
0.517578
0.519714
0.520935
0.522461
0.523682
0.525513
0.527344
0.528259
0.53009
0.531616
0.533447
0.534058
0.534668
0.536499
0.537415
0.539246
0.539246
0.540466
0.541992
0.542603
0.542908
0.543823
0.544739
0.545044
0.544434
0.545044
0.545959
0.546265
0.545654
0.545349
0.545654
0.545349
0.544739
0.545044
0.544128
0.543823
0.543213
0.542603
0.542297
0.540466
0.539551
0.539856
0.53772
0.537109
0.535278
0.533752
0.532227
0.530701
0.52948
0.527344
0.525513
0.523682
0.521545
0.52002
0.518188
0.515442
0.513306
0.510559
0.508118
0.505371
0.50293
0.500488
0.497437
0.494385
0.490723
0.488281
0.484924
0.482483
0.479126
0.476685
0.472717
0.469971
0.466614
0.463257
0.4599
0.456543
0.452881
0.449524
0.445557
0.442505
0.438232
0.435181
0.431519
0.427246
0.424194
0.420837
0.41687
0.413208
0.409241
0.404968
0.401611
0.396729
0.393372
0.389099
0.385437
0.381165
0.377197
0.373535
0.369263
0.365601
0.361328
0.35675
0.353088
0.349121
0.344543
0.340881
0.337219
0.332947
0.329285
0.326233
0.322266
0.317688
0.313416
0.310364
0.306702
0.303345
0.299377
0.295105
0.292053
0.288086
0.283508
0.280151
0.2771
0.272522
0.26886
0.265808
0.261841
0.258484
0.255127
0.250549
0.248413
0.243835
0.241699
0.238037
0.235291
0.231323
0.228271
0.225525
0.222168
0.219421
0.215759
0.212402
0.210266
0.207214
0.204163
0.201721
0.19928
0.196228
0.194092
0.19104
0.188904
0.186768
0.184326
0.181885
0.179138
0.177307
0.174561
0.172729
0.170593
0.167542
0.1651
0.163269
0.160828
0.158386
0.156555
0.154419
0.151978
0.149841
0.148315
0.146179
0.144348
0.141296
0.140076
0.137939
0.136108
0.133667
0.132141
0.130005
0.128479
0.125427
0.124207
0.122986
0.121155
0.118408
0.116882
0.115967
0.113831
0.11261
0.111084
0.108948
0.107422
0.105286
0.10498
0.103149
0.100403
0.0994873
0.0982666
0.0967407
0.0952148
0.093689
0.0927734
0.0906372
0.0891113
0.0878906
0.0869751
0.0857544
0.0842285
0.0836182
0.0820923
0.0811768
0.0793457
0.0796509
0.0787354
0.0772095
0.0762939
0.0756836
0.0741577
0.0735474
0.0723267
0.0720215
0.0723267
0.071106
0.0695801
0.0701904
0.0692749
0.0686646
0.0680542
0.0680542
0.0674438
0.0671387
0.0674438
0.0671387
0.065918
0.065918
0.0662231
0.065918
0.065918
0.0650024
0.0646973
0.0646973
0.0646973
0.0643921
0.0643921
0.0637817
0.0646973
0.0634766
0.0637817
0.0637817
0.0634766
0.0628662
0.062561
0.0634766
0.0634766
0.0628662
0.0634766
0.0634766
0.0628662
0.0631714
0.0637817
0.0637817
0.062561
0.062561
0.0637817
0.0637817
0.0640869
0.0640869
0.0643921
0.0640869
0.0646973
0.0643921
0.0646973
0.0650024
0.0656128
0.065918
0.0656128
0.065918
0.0662231
0.0662231
0.065918
0.0665283
0.0671387
0.0671387
0.0674438
0.0668335
0.0683594
0.067749
0.0683594
0.0689697
0.0689697
0.0692749
0.0692749
0.0698853
0.0701904
0.0701904
0.0704956
0.0701904
0.0708008
0.071106
0.071106
0.0708008
0.0704956
0.0717163
0.0714111
0.0714111
0.0717163
0.0717163
0.0720215
0.0714111
0.0723267
0.0723267
0.0726318
0.0726318
0.0726318
0.0732422
0.0723267
0.0732422
0.0723267
0.0717163
0.0720215
0.0720215
0.0717163
0.0720215
0.0723267
0.0708008
0.071106
0.0714111
0.0708008
0.0708008
0.071106
0.071106
0.0701904
0.0695801
0.0704956
0.0698853
0.0698853
0.0701904
0.0704956
0.0701904
0.0698853
0.0701904
0.0698853
0.0695801
0.0695801
0.0692749
0.0695801
0.0698853
0.0692749
0.0692749
0.0698853
0.0695801
0.0695801
0.0701904
0.0695801
0.0701904
0.0698853
0.0698853
0.0701904
0.0704956
0.0704956
0.0708008
0.0720215
0.0723267
0.0738525
0.0741577
0.0750732
0.0762939
0.0772095
0.078125
0.0796509
0.0805664
0.0805664
0.0830078
0.085144
0.0872803
0.0897217
0.0915527
0.0939941
0.0970459
0.100098
0.103149
0.106506
0.109863
0.114441
0.119324
0.123901
0.129395
0.135193
0.140991
0.14801
0.154419
0.161438
0.169373
0.177917
0.186768
0.196533
0.205688
0.215759
0.22644
0.237732
0.249329
0.261536
0.273743
0.286865
0.300903
0.314026
0.328369
0.343933
0.359192
0.375977
0.392151
0.40863
0.426636
0.44342
0.461121
0.479736
0.498352
0.517273
0.536194
0.555725
0.575256
0.595398
0.61554
0.635681
0.655823
0.67627
0.696716
0.717773
0.737915
0.758972
0.779419
0.800476
0.820618
0.842285
0.862427
0.882568
0.902405
0.923767
0.942688
0.963135
0.982666
1.00189
1.02081
1.03943
1.05835
1.07697
1.09558
1.11267
1.13129
1.14777
1.16455
1.18195
1.1972
1.21307
1.22833
1.24451
1.25824
1.27228
1.2854
1.29883
1.31134
1.32416
1.33575
1.34766
1.35803
1.36902
1.37878
1.38916
1.39771
1.40686
1.41449
1.42212
1.43066
1.43738
1.44379
1.44928
1.45569
1.45996
1.46545
1.47034
1.47308
1.47644
1.4798
1.48254
1.48407
1.48621
1.48743
1.48895
1.48895
1.48987
1.48956
1.48926
1.48865
1.48773
1.48651
1.48499
1.48224
1.48071
1.47705
1.47461
1.47064
1.46729
1.46332
1.45996
1.45508
1.4505
1.44592
1.44104
1.43646
1.43158
1.42578
1.41998
1.41388
1.40839
1.40198
1.39526
1.38885
1.38245
1.37512
1.36841
1.36169
1.35437
1.34705
1.33972
1.3324
1.32446
1.31714
1.30981
1.3028
1.29486
1.28662
1.28021
1.27197
1.26465
1.25732
1.24939
1.24146
1.23383
1.2262
1.21796
1.21094
1.20331
1.19507
1.18744
1.18011
1.17188
1.16455
1.15753
1.1496
1.14197
1.13464
1.12732
1.1203
1.11267
1.10596
1.09772
1.09192
1.08459
1.07697
1.07056
1.06354
1.05591
1.04919
1.04248
1.03516
1.02844
1.02264
1.01562
1.00891
1.00189
0.995178
0.98877
0.982666
0.975647
0.969238
0.963135
0.956116
0.950012
0.942688
0.937195
0.929871
0.922852
0.916443
0.910034
0.90332
0.895996
0.889587
0.882874
0.875854
0.869141
0.862427
0.856628
0.849609
0.842285
0.835876
0.828857
0.822144
0.814514
0.807495
0.799866
0.792847
0.785522
0.779724
0.771484
0.764465
0.756836
0.749817
0.742493
0.734253
0.728149
0.720825
0.713501
0.706787
0.699158
0.692444
0.684814
0.67749
0.669861
0.662842
0.656433
0.649719
0.641785
0.635376
0.628052
0.622559
0.615845
0.609436
0.603027
0.596924
0.591125
0.585327
0.579224
0.574036
0.567627
0.562744
0.557251
0.552063
0.54718
0.542908
0.538635
0.533447
0.52948
0.525208
0.521545
0.517578
0.514221
0.510559
0.507507
0.504761
0.501099
0.498962
0.496521
0.493774
0.491943
0.489807
0.487671
0.48584
0.483704
0.483398
0.480957
0.479126
0.478516
0.4776
0.476379
0.475769
0.475159
0.473938
0.474243
0.473633
0.473022
0.473938
0.473022
0.473938
0.474548
0.474548
0.475159
0.475464
0.476379
0.475769
0.4776
0.47821
0.478516
0.479736
0.480957
0.481567
0.482788
0.484314
0.484619
0.486755
0.488281
0.489807
0.491638
0.493164
0.49469
0.496521
0.497742
0.499268
0.501404
0.503235
0.503845
0.505676
0.507812
0.508728
0.510864
0.512085
0.513611
0.515747
0.516663
0.518494
0.519714
0.52063
0.522461
0.523682
0.524902
0.526428
0.527039
0.528259
0.529175
0.52948
0.530701
0.531006
0.531616
0.531616
0.533142
0.533142
0.533142
0.533752
0.533752
0.534668
0.534973
0.534058
0.534668
0.534058
0.533447
0.532532
0.532532
0.531921
0.530701
0.529785
0.52887
0.527344
0.526123
0.524597
0.522766
0.52124
0.519714
0.518494
0.516968
0.514832
0.513
0.511475
0.509033
0.506897
0.504456
0.502014
0.499573
0.497131
0.4953
0.492249
0.489807
0.486145
0.483398
0.480042
0.477295
0.474854
0.470886
0.468445
0.465088
0.461426
0.458069
0.454407
0.45166
0.447693
0.444336
0.441284
0.437317
0.43335
0.429382
0.42511
0.421143
0.418396
0.414124
0.410461
0.406189
0.401611
0.397644
0.394592
0.390015
0.386047
0.382385
0.378723
0.374756
0.370789
0.367432
0.362244
0.359497
0.354919
0.351257
0.347595
0.343323
0.339661
0.335083
0.331726
0.328064
0.324097
0.319824
0.316467
0.312195
0.308533
0.305481
0.301819
0.297852
0.295105
0.290833
0.28717
0.283813
0.279846
0.276489
0.273132
0.269165
0.265808
0.262756
0.259705
0.256042
0.252075
0.249023
0.246277
0.242615
0.240173
0.236511
0.23407
0.231323
0.227966
0.22522
0.222473
0.219421
0.21698
0.213623
0.210876
0.207825
0.205688
0.202637
0.2005
0.198059
0.195312
0.192871
0.189819
0.187073
0.185547
0.18219
0.180664
0.178528
0.176697
0.173645
0.171204
0.169067
0.167542
0.165405
0.163269
0.160217
0.158081
0.15686
0.154114
0.152893
0.150757
0.148315
0.147095
0.144958
0.143127
0.140686
0.138855
0.137939
0.135498
0.133972
0.132141
0.13092
0.129089
0.128174
0.125427
0.123901
0.123596
0.121765
0.119934
0.118408
0.116882
0.115967
0.114746
0.11322
0.111694
0.111084
0.109558
0.109253
0.108032
0.106506
0.105896
0.104675
0.103455
0.101929
0.101013
0.0997925
0.0982666
0.0985718
0.0973511
0.0964355
0.0952148
0.0946045
0.0933838
0.0921631
0.0906372
0.0906372
0.0894165
0.0888062
0.0878906
0.0875854
0.0869751
0.0863647
0.0854492
0.0842285
0.083313
0.083313
0.0827026
0.0823975
0.0820923
0.0811768
0.0802612
0.0796509
0.0799561
0.0799561
0.0796509
0.0793457
0.0790405
0.0784302
0.078125
0.078125
0.0778198
0.078125
0.0765991
0.0772095
0.0765991
0.0762939
0.0756836
0.0756836
0.0753784
0.0747681
0.0750732
0.0744629
0.0747681
0.0744629
0.0744629
0.0753784
0.0747681
0.0753784
0.0744629
0.0744629
0.0744629
0.0750732
0.0741577
0.0750732
0.0744629
0.0747681
0.0750732
0.0750732
0.0753784
0.0753784
0.0741577
0.0753784
0.0747681
0.0756836
0.0756836
0.0759888
0.0756836
0.0762939
0.0769043
0.0762939
0.0769043
0.0772095
0.078125
0.078125
0.0787354
0.078125
0.078125
0.0793457
0.0790405
0.0784302
0.0793457
0.0793457
0.0799561
0.0793457
0.0805664
0.0805664
0.0808716
0.0811768
0.0805664
0.0817871
0.0820923
0.0823975
0.0823975
0.083313
0.0842285
0.0839233
0.0842285
0.0842285
0.0845337
0.0845337
0.0845337
0.0845337
0.0854492
0.085144
0.0854492
0.085144
0.085144
0.0854492
0.0848389
0.0848389
0.0854492
0.085144
0.0854492
0.0848389
0.0845337
0.0848389
0.0845337
0.0836182
0.0836182
0.083313
0.0830078
0.0820923
0.0823975
0.0820923
0.0817871
0.0808716
0.0817871
0.0808716
0.0802612
0.0805664
0.0793457
0.0796509
0.0796509
0.0796509
0.0793457
0.0784302
0.078125
0.078125
0.0765991
0.0769043
0.0765991
0.0762939
0.0762939
0.0756836
0.0756836
0.0756836
0.0750732
0.0756836
0.0753784
0.0753784
0.0750732
0.0750732
0.0750732
0.0753784
0.0753784
0.0747681
0.0753784
0.0759888
0.0759888
0.0762939
0.0765991
0.0775146
0.0772095
0.0784302
0.0796509
0.0796509
0.0799561
0.0817871
0.0827026
0.0842285
0.085144
0.0872803
0.0891113
0.090332
0.0930786
0.0949097
0.0970459
0.0997925
0.102844
0.105896
0.108643
0.112305
0.117188
0.12085
0.125732
0.13031
0.136719
0.141602
0.147095
0.153809
0.161438
0.167542
0.175476
0.183716
0.192261
0.201721
0.211182
0.220642
0.231323
0.242004
0.252991
0.264893
0.27771
0.290833
0.303955
0.317688
0.332031
0.347595
0.362549
0.377808
0.393982
0.410461
0.427551
0.444031
0.461731
0.478821
0.497437
0.516663
0.534973
0.553589
0.57312
0.592346
0.612793
0.632019
0.651855
0.671692
0.691833
0.713196
0.734253
0.754089
0.774231
0.794373
0.814514
0.834656
0.855103
0.874939
0.895081
0.914307
0.935059
0.953674
0.9729
0.992126
1.01135
1.02997
1.04919
1.06689
1.08521
1.10229
1.12
1.13708
1.15417
1.17035
1.18683
1.20117
1.21674
1.23169
1.24573
1.25916
1.27289
1.28571
1.29822
1.30981
1.32172
1.3324
1.34399
1.35406
1.36414
1.37299
1.38214
1.39069
1.39923
1.40717
1.41388
1.42059
1.4267
1.43341
1.43799
1.44318
1.44745
1.45142
1.45538
1.45874
1.4624
1.46423
1.46667
1.46912
1.47003
1.47064
1.47125
1.47186
1.47125
1.47095
1.46973
1.46851
1.46729
1.46515
1.4624
1.45905
1.45721
1.45386
1.45111
1.44714
1.44348
1.43951
1.43494
1.42914
1.42487
1.42029
1.4151
1.409
1.40381
1.39862
1.3916
1.38611
1.37909
1.37268
1.36627
1.35895
1.35223
1.34491
1.3382
1.33118
1.32385
1.31714
1.30951
1.30157
1.29456
1.28693
1.27899
1.27167
1.26434
1.25671
1.24908
1.24176
1.23383
1.22528
1.21826
1.20972
1.20209
1.19415
1.18622
1.1792
1.17096
1.16364
1.15662
1.14868
1.13983
1.13373
1.12549
1.11816
1.11084
1.10352
1.0965
1.08887
1.08154
1.0733
1.06598
1.05896
1.05103
1.04431
1.0376
1.02997
1.02325
1.01654
1.00922
1.0025
0.995483
0.98877
0.98175
0.975342
0.967407
0.960999
0.953979
0.947266
0.940552
0.933838
0.927734
0.921021
0.914917
0.907593
0.901184
0.894775
0.887756
0.881042
0.874939
0.867615
0.861206
0.854187
0.847778
0.841064
0.834045
0.827637
0.820618
0.813599
0.806274
0.79834
0.791321
0.784302
0.777893
0.770569
0.762634
0.75592
0.748596
0.740967
0.734253
0.726624
0.719604
0.712891
0.705566
0.698853
0.691223
0.683899
0.677185
0.66925
0.661926
0.655212
0.648193
0.641174
0.634766
0.628357
0.621338
0.61554
0.609741
0.603638
0.597229
0.591431
0.585938
0.580139
0.574951
0.570374
0.56427
0.559387
0.554199
0.549927
0.545044
0.541077
0.536804
0.533142
0.52887
0.525208
0.521545
0.517883
0.515442
0.51239
0.509644
0.506897
0.50415
0.502625
0.500793
0.498962
0.497437
0.494995
0.49408
0.492859
0.492859
0.490723
0.490417
0.489197
0.489197
0.488586
0.488281
0.488281
0.489197
0.488892
0.489197
0.489502
0.490723
0.491333
0.491943
0.493164
0.493469
0.494995
0.496216
0.497437
0.498962
0.500183
0.501404
0.503845
0.505371
0.506897
0.509338
0.510864
0.513916
0.514832
0.517883
0.519714
0.522156
0.524292
0.526733
0.52887
0.531616
0.534058
0.536194
0.53894
0.540771
0.542908
0.545044
0.547791
0.550232
0.551758
0.55481
0.556641
0.559082
0.560913
0.563354
0.566406
0.568542
0.569458
0.57251
0.574036
0.576172
0.577087
0.578918
0.580139
0.58136
0.582275
0.584106
0.585022
0.586548
0.586853
0.588074
0.588379
0.588989
0.589905
0.59082
0.590515
0.59082
0.59082
0.592041
0.592041
0.591431
0.591431
0.591736
0.591431
0.591125
0.590515
0.589905
0.588684
0.588379
0.587158
0.586243
0.584412
0.584106
0.582886
0.581665
0.580444
0.578613
0.577393
0.575256
0.57373
0.571899
0.570068
0.567627
0.565491
0.562744
0.559998
0.558167
0.555115
0.552368
0.550537
0.546875
0.543823
0.541077
0.537415
0.535583
0.532227
0.52887
0.525208
0.522156
0.518494
0.515747
0.51178
0.507812
0.504761
0.500793
0.497131
0.493469
0.490112
0.485535
0.482483
0.479431
0.474854
0.471497
0.46814
0.463867
0.459595
0.456543
0.453186
0.448608
0.444946
0.441589
0.437622
0.43457
0.430908
0.426636
0.422668
0.419312
0.415039
0.411377
0.407104
0.403748
0.400391
0.396729
0.393066
0.388794
0.385742
0.382385
0.378723
0.374756
0.371094
0.367126
0.36438
0.361023
0.357361
0.353088
0.350342
0.346985
0.343933
0.340271
0.337524
0.334167
0.330811
0.328369
0.325012
0.322266
0.319519
0.316162
0.314026
0.311279
0.308533
0.305481
0.302734
0.299683
0.296631
0.294189
0.290833
0.289001
0.28595
0.283203
0.280151
0.278015
0.274963
0.272217
0.26947
0.267029
0.264893
0.261536
0.26001
0.256958
0.255127
0.252991
0.250854
0.249023
0.246582
0.244446
0.24292
0.240479
0.238037
0.236816
0.23468
0.231934
0.230713
0.228577
0.227051
0.224609
0.223389
0.221558
0.220337
0.218506
0.21698
0.214844
0.213318
0.211487
0.210266
0.208435
0.206909
0.205383
0.202637
0.202026
0.19989
0.197754
0.196533
0.195312
0.193481
0.191345
0.189819
0.188904
0.187378
0.186157
0.184937
0.183411
0.1828
0.181274
0.180054
0.178223
0.177917
0.176392
0.175171
0.173645
0.172424
0.171204
0.170593
0.169067
0.168457
0.167542
0.166931
0.165405
0.165405
0.164185
0.163269
0.162659
0.161438
0.161133
0.159912
0.158997
0.158386
0.157776
0.157166
0.15625
0.155029
0.153809
0.154114
0.153503
0.152588
0.151367
0.151978
0.151367
0.150452
0.150757
0.149536
0.149536
0.148926
0.148621
0.14801
0.14801
0.147705
0.14679
0.1474
0.14679
0.146484
0.145874
0.146179
0.14679
0.146179
0.145874
0.145874
0.146179
0.14679
0.14679
0.1474
0.147705
0.1474
0.147095
0.147095
0.14679
0.1474
0.14801
0.1474
0.148621
0.14801
0.147705
0.148315
0.14801
0.148315
0.148621
0.148621
0.148926
0.148926
0.149536
0.150146
0.150146
0.150452
0.150757
0.151367
0.150757
0.150452
0.151367
0.151062
0.151062
0.150757
0.151978
0.151367
0.151978
0.152588
0.151672
0.151978
0.152588
0.152893
0.152893
0.152893
0.153503
0.153503
0.153198
0.154114
0.153198
0.153809
0.153503
0.154114
0.154114
0.153809
0.153503
0.153198
0.153503
0.154114
0.154114
0.154419
0.153809
0.153503
0.153198
0.153503
0.153809
0.153198
0.152588
0.153198
0.152893
0.152588
0.152283
0.151062
0.151978
0.151367
0.151367
0.151367
0.151062
0.150757
0.150757
0.149536
0.149841
0.149841
0.149841
0.149231
0.149536
0.148621
0.148926
0.149231
0.148926
0.148926
0.148926
0.148621
0.148621
0.148315
0.14801
0.14801
0.148621
0.148621
0.148621
0.148621
0.148315
0.148926
0.148926
0.149231
0.149536
0.148926
0.149536
0.149231
0.149536
0.149231
0.150452
0.150757
0.151672
0.152588
0.153503
0.153503
0.155029
0.15686
0.157776
0.158997
0.161133
0.162659
0.164185
0.167542
0.168762
0.172424
0.174561
0.178528
0.18158
0.184326
0.189209
0.193787
0.197754
0.203247
0.208435
0.213928
0.220642
0.226746
0.233154
0.241699
0.249634
0.257568
0.266418
0.276184
0.285645
0.296326
0.306702
0.317993
0.328979
0.341797
0.354309
0.367126
0.380554
0.395203
0.408325
0.423889
0.438538
0.454712
0.471191
0.487061
0.50354
0.52063
0.538635
0.55481
0.573425
0.591736
0.610657
0.628662
0.647888
0.666504
0.68573
0.704956
0.725098
0.744324
0.765076
0.783997
0.802917
0.823059
0.843506
0.862427
0.882874
0.901794
0.921631
0.940552
0.959167
0.979309
0.99762
1.01685
1.03516
1.05316
1.07147
1.08826
1.10565
1.12244
1.13953
1.1557
1.17157
1.18713
1.20209
1.21704
1.2323
1.24603
1.25885
1.27228
1.28571
1.29761
1.30981
1.32141
1.3327
1.34277
1.35315
1.36353
1.37329
1.38123
1.39038
1.39893
1.40656
1.41327
1.42059
1.427
1.4328
1.43829
1.44318
1.44836
1.45294
1.4566
1.45966
1.46301
1.46576
1.46851
1.47034
1.47125
1.47308
1.47339
1.47461
1.47461
1.47461
1.474
1.47247
1.47156
1.47003
1.46881
1.46606
1.46301
1.46027
1.45782
1.45416
1.45111
1.44745
1.44318
1.4386
1.43433
1.42883
1.42395
1.41907
1.41357
1.40869
1.40228
1.39679
1.39038
1.38397
1.37787
1.37146
1.36505
1.35803
1.35071
1.3443
1.33698
1.32935
1.32233
1.315
1.30676
1.29944
1.2915
1.28479
1.27594
1.26862
1.26068
1.25336
1.24542
1.23718
1.22925
1.22192
1.21368
1.20605
1.19781
1.19049
1.18256
1.17493
1.16699
1.15906
1.15173
1.14349
1.13647
1.12854
1.12183
1.11359
1.10718
1.09863
1.09161
1.08368
1.07666
1.06934
1.06232
1.05469
1.04797
1.04034
1.03302
1.0257
1.01898
1.01257
1.00494
0.997925
0.990295
0.984192
0.976257
0.971069
0.96405
0.956116
0.949402
0.941772
0.935059
0.928955
0.921936
0.914917
0.908203
0.900879
0.893555
0.88623
0.878906
0.871887
0.865173
0.858154
0.85022
0.844116
0.835571
0.827637
0.820618
0.813904
0.806274
0.800171
0.792236
0.783997
0.777283
0.770569
0.762329
0.755615
0.747375
0.739746
0.732422
0.724792
0.717773
0.710449
0.70282
0.69458
0.688477
0.680847
0.675049
0.667725
0.660095
0.653992
0.646362
0.640564
0.63324
0.627136
0.621643
0.615234
0.609131
0.603638
0.597229
0.591736
0.586243
0.580444
0.574646
0.570374
0.56488
0.560303
0.55603
0.551758
0.547485
0.544128
0.539856
0.535889
0.533142
0.529785
0.527344
0.523682
0.520935
0.517883
0.515747
0.514221
0.51178
0.510254
0.508423
0.507507
0.505371
0.505066
0.503235
0.50354
0.501709
0.501099
0.501709
0.500793
0.501404
0.501404
0.501709
0.501404
0.502319
0.502319
0.50354
0.503235
0.505066
0.505676
0.506897
0.507812
0.509033
0.510559
0.51178
0.513306
0.514526
0.516052
0.518494
0.519409
0.521851
0.523682
0.525208
0.527344
0.529785
0.531616
0.532532
0.536194
0.537109
0.539856
0.542603
0.544434
0.545959
0.548096
0.550232
0.552368
0.554504
0.556641
0.558777
0.560303
0.562744
0.564575
0.566711
0.568542
0.569763
0.571594
0.57251
0.574646
0.576477
0.577393
0.578308
0.579529
0.58136
0.58197
0.583191
0.583801
0.584412
0.586243
0.586243
0.586853
0.587463
0.587769
0.588989
0.588684
0.588684
0.588684
0.588379
0.588684
0.588989
0.588379
0.587769
0.588074
0.587158
0.586243
0.585022
0.584412
0.583801
0.582886
0.581665
0.581055
0.579224
0.578003
0.576782
0.575562
0.57373
0.57251
0.570679
0.568542
0.566406
0.56427
0.562439
0.559998
0.558167
0.555115
0.553589
0.549927
0.548401
0.545044
0.542908
0.539856
0.53772
0.535278
0.532532
0.528564
0.525513
0.522766
0.519714
0.517273
0.513916
0.510254
0.507202
0.50354
0.500488
0.497742
0.493774
0.490723
0.48645
0.483704
0.480347
0.476074
0.473328
0.46875
0.465698
0.462646
0.458069
0.454712
0.450134
0.447083
0.4422
0.439453
0.434875
0.430908
0.427551
0.423279
0.419006
0.415955
0.411682
0.406799
0.403442
0.399475
0.396118
0.391846
0.387878
0.383911
0.379333
0.375977
0.372009
0.368042
0.364685
0.360107
0.356445
0.352478
0.348816
0.344849
0.341797
0.33844
0.334473
0.331421
0.327454
0.324402
0.320435
0.317383
0.313721
0.310364
0.307617
0.30426
0.300598
0.296936
0.294189
0.290833
0.288086
0.285339
0.282288
0.278625
0.276489
0.274353
0.270691
0.267944
0.264587
0.262146
0.26001
0.257568
0.254211
0.25177
0.249329
0.246887
0.244141
0.241394
0.238953
0.237427
0.23468
0.232849
0.230713
0.228577
0.226135
0.223694
0.221863
0.220032
0.218201
0.21637
0.213623
0.212402
0.209656
0.207825
0.205688
0.203857
0.202332
0.200806
0.198669
0.196838
0.194702
0.193176
0.19165
0.189819
0.187988
0.187378
0.185547
0.183105
0.1828
0.180054
0.179138
0.177917
0.176086
0.175781
0.17334
0.172119
0.169983
0.168762
0.167542
0.166016
0.164795
0.163269
0.162659
0.160828
0.160217
0.159302
0.157471
0.156555
0.15625
0.154419
0.153809
0.153198
0.151672
0.151672
0.150452
0.149536
0.148315
0.147705
0.145874
0.145569
0.144348
0.144348
0.143127
0.142822
0.141602
0.141602
0.140686
0.140686
0.139465
0.138855
0.13855
0.137329
0.137024
0.136414
0.135193
0.134888
0.134277
0.133667
0.133362
0.132446
0.132446
0.131531
0.131531
0.13092
0.13031
0.129395
0.129395
0.129395
0.129089
0.128784
0.128479
0.128784
0.128174
0.127869
0.128174
0.128784
0.128174
0.128174
0.128479
0.127869
0.128479
0.127258
0.127563
0.128174
0.128174
0.128479
0.128174
0.127869
0.129089
0.128479
0.128479
0.1297
0.129395
0.130005
0.1297
0.13031
0.13031
0.130615
0.13031
0.131531
0.131836
0.131226
0.131836
0.132141
0.132446
0.132446
0.133362
0.133972
0.134583
0.134277
0.134888
0.135498
0.135498
0.136108
0.135803
0.136108
0.136719
0.137024
0.137329
0.137634
0.137024
0.137939
0.137329
0.138245
0.137939
0.137939
0.137939
0.137939
0.137939
0.138245
0.137939
0.137634
0.137939
0.137634
0.136719
0.136414
0.135803
0.135803
0.135193
0.135193
0.135498
0.134583
0.134888
0.134888
0.133972
0.133667
0.133057
0.133362
0.132751
0.132751
0.132446
0.132446
0.132141
0.131836
0.132141
0.13092
0.130615
0.13092
0.130005
0.13031
0.13031
0.1297
0.129089
0.1297
0.1297
0.13031
0.130005
0.130005
0.13031
0.130005
0.130615
0.13092
0.131836
0.132446
0.131836
0.132751
0.133667
0.134277
0.134583
0.135193
0.136108
0.138245
0.139465
0.140381
0.142822
0.143738
0.146179
0.147705
0.150146
0.152283
0.155029
0.157471
0.160522
0.163879
0.167542
0.171509
0.176392
0.180054
0.184631
0.190735
0.195618
0.202026
0.20874
0.215454
0.222778
0.230408
0.237732
0.246277
0.256042
0.265503
0.275269
0.285645
0.296326
0.308228
0.319519
0.331726
0.344849
0.357971
0.371704
0.386963
0.401306
0.41748
0.433044
0.449219
0.465698
0.483398
0.500488
0.518494
0.537109
0.555115
0.574341
0.593567
0.613403
0.632019
0.653076
0.673828
0.69397
0.714722
0.736084
0.757141
0.777893
0.79895
0.820312
0.841675
0.862427
0.884705
0.905762
0.927124
0.948181
0.969543
0.98999
1.01135
1.03241
1.05286
1.07239
1.09344
1.11206
1.1319
1.15112
1.17035
1.18835
1.20697
1.22437
1.24268
1.25946
1.27716
1.29333
1.30981
1.32507
1.34094
1.35529
1.36993
1.38428
1.39801
1.41022
1.42334
1.43463
1.44684
1.45844
1.46973
1.4798
1.48956
1.49902
1.50879
1.51642
1.52466
1.5329
1.53931
1.54663
1.55304
1.55884
1.56372
1.56891
1.57379
1.57654
1.58051
1.58325
1.586
1.58844
1.59058
1.59149
1.59241
1.59302
1.59332
1.59393
1.59363
1.59302
1.5921
1.59058
1.58936
1.58691
1.58478
1.58234
1.57867
1.57562
1.57166
1.56738
1.56403
1.55975
1.55487
1.5506
1.54633
1.54053
1.53473
1.53046
1.52466
1.51917
1.51306
1.50635
1.50055
1.49384
1.48834
1.48132
1.47491
1.46759
1.46118
1.45416
1.44684
1.44012
1.43311
1.42609
1.41815
1.41113
1.4035
1.39648
1.38916
1.38092
1.3739
1.36719
1.35895
1.35071
1.34399
1.33606
1.32843
1.3205
1.31378
1.30463
1.29761
1.29028
1.28296
1.27533
1.2674
1.26007
1.25366
1.24603
1.23901
1.23108
1.22437
1.21765
1.21063
1.20392
1.1972
1.18988
1.18378
1.17706
1.16943
1.16302
1.15631
1.1499
1.1441
1.138
1.13159
1.12457
1.11877
1.11206
1.10657
1.10046
1.09406
1.08887
1.08215
1.07605
1.06964
1.06384
1.05804
1.05133
1.04614
1.04034
1.03363
1.02783
1.02112
1.01471
1.00891
1.0025
0.996094
0.98999
0.984192
0.977783
0.971375
0.964661
0.958252
0.951538
0.944519
0.93811
0.931396
0.923767
0.917053
0.909424
0.901794
0.895691
0.888062
0.880737
0.873413
0.865479
0.857849
0.851135
0.843201
0.835266
0.827942
0.820312
0.812073
0.804443
0.797119
0.78949
0.781555
0.774536
0.766907
0.758972
0.751038
0.744019
0.736389
0.729065
0.721741
0.715027
0.707092
0.701599
0.69458
0.687256
0.681458
0.673828
0.667725
0.661926
0.655212
0.649719
0.644531
0.637817
0.632935
0.627441
0.621948
0.61676
0.611877
0.6073
0.602722
0.597534
0.593567
0.589294
0.586243
0.582275
0.579224
0.575562
0.571899
0.569458
0.565491
0.563965
0.560303
0.558167
0.555115
0.553284
0.551147
0.549622
0.546875
0.545654
0.544128
0.542603
0.541382
0.539856
0.539856
0.53833
0.538025
0.537109
0.536499
0.535889
0.535278
0.535889
0.535278
0.535583
0.534973
0.535583
0.536499
0.535889
0.535583
0.537109
0.536804
0.53772
0.538635
0.53833
0.539551
0.540466
0.541077
0.541992
0.542603
0.543823
0.544739
0.545959
0.546875
0.54718
0.548401
0.549011
0.549927
0.550842
0.551758
0.552673
0.553284
0.553589
0.553894
0.554504
0.555115
0.556335
0.556335
0.556335
0.557861
0.558167
0.558472
0.558777
0.558472
0.559082
0.559692
0.559387
0.559082
0.558472
0.558167
0.558167
0.558167
0.556946
0.556946
0.556335
0.555115
0.554199
0.553284
0.552673
0.551453
0.549927
0.549011
0.547791
0.546265
0.544739
0.543213
0.541077
0.539246
0.53772
0.535889
0.534058
0.532227
0.529785
0.528564
0.525208
0.522766
0.520325
0.518494
0.515442
0.513611
0.510254
0.507507
0.504761
0.502014
0.498962
0.496216
0.492554
0.489197
0.486145
0.482483
0.480042
0.476685
0.473022
0.46936
0.465088
0.462341
0.45929
0.455627
0.45166
0.448608
0.444336
0.440979
0.436707
0.433655
0.429382
0.42572
0.421753
0.418091
0.413513
0.409241
0.405579
0.401611
0.397034
0.393066
0.389404
0.385437
0.38147
0.376892
0.37323
0.368958
0.364685
0.360718
0.35614
0.352478
0.3479
0.343933
0.340576
0.335388
0.331116
0.328064
0.323486
0.319214
0.315552
0.31189
0.308228
0.303955
0.300598
0.296631
0.292664
0.288696
0.285034
0.281067
0.277405
0.273743
0.26947
0.265808
0.26123
0.259094
0.255127
0.251465
0.247192
0.244141
0.240173
0.236511
0.233459
0.230713
0.226746
0.223083
0.219421
0.216064
0.212708
0.209351
0.205688
0.203247
0.19928
0.196838
0.193787
0.190125
0.187988
0.184631
0.181274
0.178528
0.175781
0.173035
0.169678
0.166931
0.163879
0.161743
0.158691
0.15625
0.154114
0.152283
0.148926
0.146484
0.144043
0.140991
0.140076
0.137024
0.134277
0.132446
0.130005
0.128479
0.126953
0.124512
0.121765
0.119934
0.118103
0.116882
0.114441
0.112915
0.111084
0.109863
0.107727
0.10498
0.104065
0.101929
0.0997925
0.0979614
0.0961304
0.0942993
0.0918579
0.0909424
0.0891113
0.0878906
0.0863647
0.085144
0.0830078
0.0817871
0.0799561
0.0796509
0.0784302
0.0772095
0.0747681
0.0744629
0.0723267
0.071106
0.0704956
0.0695801
0.0683594
0.0671387
0.065918
0.0650024
0.0640869
0.0631714
0.0619507
0.0610352
0.0601196
0.0592041
0.0588989
0.0579834
0.0570679
0.0561523
0.0546265
0.0537109
0.0531006
0.0521851
0.0518799
0.0506592
0.0497437
0.0491333
0.0473022
0.0473022
0.0473022
0.0463867
0.0460815
0.045166
0.0442505
0.0439453
0.0439453
0.043335
0.0430298
0.0424194
0.0421143
0.0418091
0.0408936
0.0405884
0.0405884
0.039978
0.0393677
0.0393677
0.0393677
0.0393677
0.0390625
0.0390625
0.0384521
0.0396729
0.0387573
0.0390625
0.0390625
0.0390625
0.0384521
0.038147
0.0393677
0.0387573
0.0387573
0.0387573
0.038147
0.0390625
0.038147
0.0378418
0.0384521
0.0387573
0.0384521
0.0384521
0.0384521
0.0390625
0.0390625
0.0390625
0.039978
0.0396729
0.0396729
0.039978
0.039978
0.0402832
0.039978
0.039978
0.0405884
0.039978
0.0396729
0.0402832
0.0405884
0.0402832
0.0405884
0.0411987
0.0415039
0.0411987
0.0418091
0.0421143
0.0421143
0.0427246
0.0418091
0.0427246
0.0421143
0.0421143
0.0418091
0.0418091
0.0418091
0.0415039
0.0418091
0.0415039
0.0418091
0.0411987
0.0408936
0.039978
0.0408936
0.0396729
0.039978
0.0393677
0.0390625
0.0390625
0.0393677
0.0384521
0.0387573
0.0372314
0.0375366
0.0366211
0.0360107
0.0354004
0.0357056
0.0357056
0.0357056
0.03479
0.0350952
0.0341797
0.0344849
0.0341797
0.0344849
0.0338745
0.0344849
0.0344849
0.0341797
0.0341797
0.0335693
0.0344849
0.0338745
0.0341797
0.0344849
0.0341797
0.0344849
0.0341797
0.0350952
0.0357056
0.0360107
0.0363159
0.0375366
0.0375366
0.038147
0.0390625
0.0390625
0.0408936
0.0415039
0.0427246
0.0436401
0.0454712
0.0466919
0.0476074
0.0494385
0.0506592
0.0527954
0.0552368
0.0570679
0.0595093
0.0631714
0.0650024
0.0686646
0.0717163
0.0756836
0.0799561
0.0836182
0.0878906
0.0930786
0.0982666
0.104065
0.109863
0.115967
0.123291
0.130005
0.137939
0.147095
0.154419
0.163879
0.173035
0.183411
0.192871
0.204163
0.215759
0.227356
0.239563
0.252991
0.266113
0.279541
0.294189
0.308228
0.323792
0.33905
0.355225
0.371704
0.387878
0.406189
0.422974
0.441284
0.4599
0.478516
0.497131
0.516663
0.536194
0.555725
0.575562
0.595398
0.61676
0.636597
0.657043
0.677185
0.698242
0.719299
0.739746
0.760498
0.78125
0.802307
0.822449
0.843506
0.863647
0.885315
0.904846
0.925293
0.945435
0.965271
0.985413
1.00525
1.02386
1.04248
1.06171
1.0791
1.09833
1.11511
1.13281
1.14929
1.16516
1.18195
1.19781
1.21338
1.22894
1.24359
1.25732
1.27136
1.28448
1.29791
1.31012
1.32202
1.33423
1.34521
1.35468
1.36627
1.37604
1.38489
1.39343
1.40198
1.40991
1.41724
1.42395
1.43005
1.43616
1.44257
1.44745
1.45233
1.45599
1.46057
1.46393
1.46698
1.46973
1.47186
1.47369
1.47522
1.47675
1.47705
1.47675
1.47736
1.47705
1.47614
1.47614
1.47461
1.47308
1.47095
1.46912
1.46606
1.46423
1.46027
1.45752
1.45538
1.45081
1.44714
1.44257
1.43829
1.43372
1.42914
1.42456
1.41907
1.41296
1.4093
1.4035
1.39801
1.39221
1.38672
1.38031
1.37451
1.36749
1.36169
1.3562
1.34949
1.34308
1.33667
1.33057
1.32324
1.31653
1.31012
1.3028
1.29578
1.28967
1.28265
1.27655
1.26892
1.26251
1.2561
1.24939
1.24268
1.23596
1.22864
1.22314
1.21582
1.2088
1.20239
1.19598
1.18958
1.18286
1.17584
1.16913
1.16302
1.15631
1.1496
1.14319
1.13708
1.13068
1.12488
1.11847
1.11298
1.10718
1.10046
1.09436
1.08887
1.08276
1.07666
1.07117
1.06506
1.05988
1.05286
1.04797
1.04248
1.03668
1.02997
1.02478
1.01898
1.01349
1.00739
1.00128
0.995483
0.98999
0.984497
0.978699
0.973206
0.967407
0.961304
0.955505
0.949402
0.943909
0.937805
0.932007
0.925598
0.919495
0.912781
0.906677
0.900269
0.894165
0.888062
0.880737
0.874023
0.867615
0.861206
0.854492
0.847168
0.840759
0.83313
0.826111
0.818481
0.811157
0.804443
0.796204
0.789185
0.782471
0.774536
0.766907
0.759583
0.751953
0.744324
0.737
0.730286
0.722046
0.715332
0.707397
0.700378
0.693359
0.68573
0.679016
0.671997
0.664978
0.658264
0.651245
0.644836
0.637817
0.632019
0.624695
0.619202
0.612183
0.6073
0.601501
0.594788
0.588989
0.584717
0.579224
0.572815
0.568848
0.563965
0.558777
0.554199
0.549927
0.544434
0.540771
0.536499
0.532532
0.529175
0.524902
0.522156
0.518494
0.514832
0.512085
0.509033
0.506897
0.50415
0.502014
0.500488
0.498047
0.495911
0.494385
0.493164
0.492554
0.490417
0.489197
0.488281
0.487061
0.486145
0.48645
0.48584
0.485229
0.484924
0.484314
0.484314
0.484314
0.484619
0.484619
0.484009
0.485535
0.48584
0.485535
0.48584
0.487671
0.486755
0.487671
0.488892
0.489197
0.489807
0.490723
0.491333
0.492249
0.493164
0.49408
0.4953
0.496216
0.496826
0.498047
0.498657
0.500183
0.500793
0.501099
0.502319
0.50293
0.50354
0.504761
0.505066
0.505066
0.505981
0.505676
0.506592
0.506592
0.507507
0.508118
0.509033
0.508118
0.508423
0.508728
0.509338
0.508728
0.508728
0.508118
0.508118
0.508118
0.507507
0.507202
0.506897
0.505981
0.505676
0.504761
0.50354
0.502625
0.501709
0.500793
0.500793
0.499268
0.497131
0.495911
0.49469
0.493164
0.491333
0.490112
0.488281
0.486755
0.484619
0.481873
0.480042
0.4776
0.476074
0.473328
0.470581
0.468445
0.466003
0.462952
0.46051
0.457458
0.455322
0.451965
0.449829
0.447083
0.443726
0.440979
0.436096
0.433655
0.431213
0.427856
0.4245
0.421143
0.418091
0.414429
0.411682
0.407104
0.404968
0.399475
0.397339
0.392761
0.389099
0.386047
0.382385
0.379333
0.374756
0.371399
0.367432
0.36377
0.359192
0.35614
0.352478
0.348511
0.344238
0.340881
0.336609
0.332336
0.328064
0.325012
0.320435
0.317383
0.31311
0.309448
0.305481
0.301819
0.297852
0.293274
0.289612
0.28595
0.281982
0.27771
0.274048
0.26947
0.265808
0.262451
0.258789
0.254517
0.250549
0.247192
0.24353
0.239868
0.236206
0.232849
0.229797
0.225525
0.222168
0.219421
0.215149
0.211792
0.208435
0.205383
0.201416
0.198669
0.195618
0.191956
0.187988
0.185852
0.182495
0.180359
0.177307
0.17395
0.171814
0.169067
0.165405
0.162964
0.160217
0.15686
0.154724
0.152588
0.149841
0.146484
0.144348
0.142212
0.140076
0.137939
0.135193
0.132751
0.13031
0.128784
0.126343
0.123901
0.122375
0.119629
0.118713
0.116882
0.114136
0.112915
0.110779
0.108337
0.106506
0.105286
0.102844
0.101013
0.0994873
0.0973511
0.0961304
0.0942993
0.0921631
0.0912476
0.0894165
0.0875854
0.0866699
0.0848389
0.0827026
0.0823975
0.0808716
0.0793457
0.0796509
0.0775146
0.0756836
0.0747681
0.0735474
0.0720215
0.0708008
0.0695801
0.0683594
0.0674438
0.065918
0.0650024
0.0643921
0.0634766
0.0622559
0.06073
0.0601196
0.0585938
0.0582886
0.0570679
0.0552368
0.0549316
0.0546265
0.0527954
0.0524902
0.0509644
0.0506592
0.0491333
0.0482178
0.0473022
0.0476074
0.0463867
0.045166
0.045166
0.0445557
0.0430298
0.043335
0.0427246
0.0418091
0.0411987
0.0402832
0.0402832
0.0390625
0.0384521
0.0384521
0.038147
0.0375366
0.0366211
0.0360107
0.0360107
0.0350952
0.0354004
0.0354004
0.03479
0.0344849
0.0344849
0.0335693
0.0335693
0.0326538
0.032959
0.0332642
0.0332642
0.0326538
0.0323486
0.0320435
0.0317383
0.0314331
0.0317383
0.0320435
0.0317383
0.0311279
0.0308228
0.0305176
0.0305176
0.0311279
0.0308228
0.0308228
0.0311279
0.0308228
0.0314331
0.0308228
0.0308228
0.0317383
0.0317383
0.0317383
0.0320435
0.0320435
0.0314331
0.0326538
0.0317383
0.032959
0.032959
0.0332642
0.0335693
0.0344849
0.0344849
0.0341797
0.0350952
0.0357056
0.0354004
0.0354004
0.0357056
0.0363159
0.0357056
0.0363159
0.0366211
0.0360107
0.0363159
0.0372314
0.0366211
0.0372314
0.0375366
0.0378418
0.0372314
0.0378418
0.038147
0.0390625
0.0387573
0.0384521
0.0390625
0.0393677
0.039978
0.0396729
0.0396729
0.039978
0.0396729
0.0396729
0.0390625
0.0393677
0.0384521
0.0393677
0.0384521
0.0387573
0.0375366
0.0372314
0.0372314
0.0372314
0.0366211
0.0366211
0.0366211
0.0357056
0.0350952
0.0344849
0.03479
0.0344849
0.0344849
0.0332642
0.0332642
0.0341797
0.0332642
0.032959
0.0323486
0.0323486
0.0326538
0.0326538
0.0323486
0.032959
0.0323486
0.0323486
0.0323486
0.0323486
0.0326538
0.0317383
0.0320435
0.0320435
0.0317383
0.0317383
0.0317383
0.0320435
0.0326538
0.032959
0.0335693
0.0338745
0.03479
0.03479
0.0354004
0.0354004
0.0369263
0.0375366
0.0384521
0.0390625
0.039978
0.0408936
0.0418091
0.043335
0.0454712
0.0473022
0.0485229
0.0512695
0.0524902
0.0552368
0.0585938
0.0619507
0.0650024
0.0686646
0.0726318
0.0765991
0.0802612
0.085144
0.0897217
0.09552
0.101013
0.107422
0.113525
0.12085
0.128479
0.135803
0.144043
0.153503
0.162048
0.171814
0.18158
0.192871
0.203247
0.215149
0.227661
0.239868
0.252686
0.267334
0.280762
0.2948
0.309448
0.325012
0.339966
0.356445
0.372925
0.390015
0.407104
0.424805
0.442505
0.460815
0.479736
0.498352
0.517273
0.537415
0.556641
0.576782
0.596924
0.61676
0.636902
0.656738
0.67688
0.697632
0.718079
0.73822
0.758057
0.780029
0.799255
0.819702
0.839233
0.859985
0.880127
0.899048
0.919495
0.938721
0.957947
0.976562
0.995483
1.01379
1.03241
1.05072
1.06781
1.0849
1.10168
1.11816
1.13434
1.1499
1.16547
1.18042
1.19476
1.2085
1.22314
1.23627
1.24908
1.26221
1.27411
1.28632
1.29669
1.30707
1.31744
1.3269
1.33698
1.34552
1.35406
1.36169
1.36993
1.37695
1.38367
1.38977
1.39587
1.40106
1.40594
1.41083
1.41449
1.41876
1.42212
1.42609
1.42792
1.43005
1.4325
1.43433
1.43494
1.43585
1.43585
1.43646
1.43585
1.43494
1.43494
1.4328
1.43127
1.42975
1.42731
1.42456
1.42273
1.41937
1.41663
1.41266
1.40961
1.40594
1.40228
1.3974
1.39343
1.38855
1.38336
1.37817
1.37421
1.36719
1.36292
1.35742
1.35162
1.34583
1.34003
1.33423
1.32843
1.32172
1.31622
1.30981
1.3028
1.29608
1.29059
1.28326
1.27716
1.27014
1.26434
1.25702
1.25031
1.2439
1.23749
1.22925
1.22284
1.21552
1.20972
1.2027
1.19568
1.18927
1.18195
1.17554
1.16852
1.16241
1.1557
1.14868
1.14258
1.13586
1.12915
1.12183
1.11633
1.10931
1.10291
1.0968
1.0907
1.08398
1.07758
1.07147
1.06598
1.05927
1.05286
1.04675
1.04187
1.03485
1.02905
1.02356
1.01715
1.01166
1.00586
1.00037
0.994263
0.988159
0.982361
0.976562
0.971069
0.965271
0.959167
0.953369
0.948181
0.942078
0.935669
0.929871
0.924377
0.917969
0.911865
0.907593
0.899963
0.89386
0.887146
0.881042
0.875244
0.868225
0.862122
0.855713
0.848694
0.84198
0.835266
0.828552
0.821533
0.814514
0.807495
0.800476
0.793152
0.786743
0.778503
0.772095
0.764771
0.757446
0.749817
0.742493
0.735168
0.728149
0.72052
0.712891
0.706177
0.699768
0.691833
0.68512
0.678101
0.671082
0.664673
0.657959
0.65094
0.645142
0.637207
0.631104
0.625
0.618591
0.612488
0.606079
0.600281
0.595093
0.588989
0.583191
0.578003
0.57312
0.567627
0.562439
0.558167
0.553894
0.549011
0.544739
0.540161
0.536194
0.532227
0.528564
0.524902
0.521545
0.518494
0.514221
0.511475
0.509338
0.505981
0.50415
0.501099
0.499878
0.497131
0.495911
0.49408
0.492249
0.491028
0.490112
0.488586
0.487366
0.487061
0.48584
0.484924
0.484924
0.484619
0.484314
0.483398
0.484009
0.484009
0.483704
0.484619
0.484009
0.484619
0.485535
0.485229
0.48645
0.486755
0.487671
0.488586
0.490112
0.490417
0.491943
0.492249
0.492554
0.494995
0.4953
0.496826
0.498047
0.499268
0.501099
0.502625
0.50354
0.505371
0.506287
0.508118
0.509644
0.510559
0.512085
0.513611
0.514832
0.516357
0.517578
0.519104
0.520325
0.520325
0.522156
0.523376
0.524597
0.525208
0.525513
0.526733
0.527954
0.528564
0.529175
0.529785
0.530396
0.530701
0.531006
0.531616
0.531921
0.532227
0.532227
0.532532
0.531616
0.531921
0.531006
0.53009
0.529785
0.529175
0.528259
0.528259
0.527039
0.525513
0.525513
0.523682
0.523071
0.521545
0.52002
0.518188
0.515747
0.514832
0.513
0.510559
0.508728
0.506592
0.504761
0.501404
0.499878
0.497131
0.494995
0.492249
0.489502
0.48645
0.484314
0.481262
0.478516
0.474854
0.472412
0.469666
0.466614
0.463257
0.4599
0.456848
0.452576
0.450439
0.446472
0.443115
0.440063
0.436096
0.432739
0.428467
0.42511
0.421753
0.418091
0.414734
0.410767
0.407715
0.403442
0.400391
0.397034
0.393677
0.389404
0.386047
0.38147
0.377808
0.374451
0.370178
0.366821
0.363159
0.358887
0.35553
0.352173
0.348816
0.344543
0.340881
0.337524
0.333862
0.329895
0.326843
0.323181
0.319824
0.316162
0.3125
0.308533
0.304871
0.301514
0.298462
0.294495
0.290527
0.287781
0.284119
0.280457
0.27771
0.274048
0.270081
0.267334
0.263977
0.260315
0.256653
0.254517
0.250854
0.247498
0.244141
0.241089
0.238342
0.234985
0.231628
0.228882
0.22583
0.222473
0.219116
0.216064
0.213623
0.210571
0.20813
0.205383
0.203247
0.200195
0.197754
0.195312
0.191956
0.189819
0.187378
0.184326
0.18219
0.179749
0.177307
0.174255
0.171509
0.169983
0.168457
0.16449
0.163574
0.161743
0.159302
0.157471
0.15564
0.153809
0.151367
0.149536
0.147095
0.145569
0.144043
0.142517
0.140686
0.13855
0.137024
0.134583
0.133362
0.131836
0.13031
0.128784
0.126953
0.125122
0.123596
0.123291
0.120544
0.119629
0.119019
0.117188
0.115662
0.114746
0.113525
0.112305
0.110779
0.110168
0.107727
0.106812
0.105896
0.104065
0.103455
0.102539
0.101929
0.100403
0.0991821
0.0982666
0.0973511
0.0964355
0.0949097
0.0942993
0.0930786
0.0921631
0.0909424
0.0906372
0.0888062
0.0881958
0.0878906
0.0878906
0.0863647
0.085144
0.0842285
0.0839233
0.0830078
0.0827026
0.0830078
0.0817871
0.0814819
0.0802612
0.0805664
0.0796509
0.0799561
0.0793457
0.0790405
0.0790405
0.078125
0.0778198
0.0775146
0.0772095
0.0769043
0.0762939
0.0756836
0.0759888
0.0759888
0.0753784
0.0753784
0.0753784
0.0744629
0.0750732
0.0744629
0.0741577
0.0741577
0.0741577
0.0738525
0.0735474
0.0735474
0.072937
0.0723267
0.0723267
0.0723267
0.0732422
0.0720215
0.0732422
0.0723267
0.0732422
0.0723267
0.0735474
0.0732422
0.0735474
0.0735474
0.0741577
0.0738525
0.0744629
0.0744629
0.0747681
0.0747681
0.0753784
0.0753784
0.0759888
0.0756836
0.0765991
0.0769043
0.0769043
0.078125
0.0778198
0.0787354
0.0790405
0.0796509
0.0796509
0.0790405
0.0799561
0.0805664
0.0811768
0.0811768
0.0817871
0.0814819
0.0820923
0.0827026
0.0823975
0.083313
0.083313
0.0836182
0.0839233
0.0842285
0.0839233
0.0842285
0.0848389
0.0845337
0.0857544
0.0845337
0.0857544
0.0854492
0.0857544
0.0869751
0.0863647
0.0860596
0.0863647
0.0863647
0.0863647
0.0860596
0.0866699
0.0869751
0.0863647
0.0860596
0.0869751
0.0872803
0.0869751
0.0872803
0.0869751
0.0860596
0.0869751
0.0863647
0.0857544
0.0857544
0.0854492
0.0848389
0.0845337
0.0845337
0.0839233
0.0839233
0.0830078
0.0823975
0.0823975
0.0817871
0.0814819
0.0814819
0.0808716
0.0808716
0.0802612
0.0796509
0.0793457
0.0796509
0.0793457
0.0793457
0.0787354
0.0787354
0.0778198
0.0769043
0.0769043
0.0765991
0.0759888
0.0759888
0.0756836
0.0756836
0.0750732
0.0750732
0.0738525
0.0744629
0.0738525
0.0738525
0.0741577
0.0735474
0.0741577
0.0735474
0.0738525
0.0741577
0.0741577
0.0741577
0.0744629
0.0747681
0.0750732
0.0753784
0.0759888
0.0772095
0.078125
0.0793457
0.0793457
0.0805664
0.0820923
0.0839233
0.0860596
0.0875854
0.0891113
0.0909424
0.0933838
0.0970459
0.0994873
0.102539
0.106201
0.110168
0.114136
0.118103
0.123596
0.128479
0.133362
0.139771
0.146179
0.152893
0.159912
0.167847
0.174561
0.183411
0.19165
0.201416
0.210571
0.220642
0.231323
0.241699
0.253906
0.265503
0.2771
0.290527
0.303955
0.317383
0.330505
0.345764
0.361328
0.376587
0.392151
0.408936
0.42511
0.442505
0.458984
0.475769
0.494995
0.513306
0.530701
0.549927
0.569153
0.588074
0.6073
0.626831
0.646362
0.666809
0.686646
0.706787
0.726929
0.746765
0.766907
0.787964
0.80719
0.827637
0.847473
0.867615
0.887756
0.907593
0.927734
0.946045
0.965576
0.983887
1.00311
1.02173
1.04004
1.05835
1.07574
1.09253
1.11023
1.12701
1.14319
1.15875
1.17462
1.19019
1.20483
1.21979
1.23383
1.24756
1.26068
1.2735
1.28571
1.29822
1.3092
1.3205
1.33118
1.34094
1.35162
1.36017
1.36902
1.37848
1.38489
1.39343
1.40045
1.40747
1.41418
1.41907
1.42487
1.42944
1.43433
1.43829
1.44226
1.44531
1.44806
1.4502
1.45111
1.45325
1.45416
1.45538
1.45599
1.4563
1.45538
1.45508
1.45325
1.45233
1.45111
1.44867
1.44714
1.4444
1.44073
1.4386
1.43555
1.43127
1.42731
1.42303
1.41907
1.41479
1.4093
1.40411
1.39984
1.39374
1.38763
1.38306
1.37665
1.37054
1.36444
1.35803
1.35132
1.34491
1.33759
1.33148
1.32538
1.31836
1.31165
1.30402
1.297
1.29059
1.28296
1.27533
1.26862
1.26129
1.25336
1.24725
1.24023
1.2323
1.22437
1.21674
1.20941
1.20361
1.19537
1.18835
1.18011
1.17371
1.16638
1.15906
1.15112
1.1438
1.13678
1.13068
1.12274
1.11664
1.10931
1.1026
1.09528
1.08948
1.08246
1.07605
1.06842
1.06232
1.05499
1.04889
1.04309
1.03577
1.02905
1.02295
1.01624
1.01044
1.00342
0.997314
0.990601
0.984802
0.978699
0.972595
0.966187
0.959473
0.952759
0.94696
0.941162
0.933838
0.927734
0.921631
0.914612
0.908203
0.902405
0.895081
0.888977
0.881958
0.875549
0.86792
0.862122
0.855713
0.848083
0.84137
0.834656
0.827332
0.820312
0.812073
0.805969
0.79895
0.791931
0.784302
0.777893
0.770264
0.762634
0.755615
0.747986
0.741272
0.733643
0.726929
0.718994
0.712891
0.704651
0.698853
0.691528
0.684814
0.677185
0.671387
0.664673
0.657349
0.651245
0.645142
0.639343
0.632935
0.626221
0.620422
0.614929
0.609436
0.604248
0.59906
0.594177
0.5896
0.584106
0.580444
0.574646
0.571594
0.567017
0.563965
0.559082
0.55603
0.552979
0.549927
0.54718
0.543518
0.541992
0.538635
0.536499
0.534363
0.533142
0.531006
0.529785
0.527954
0.527344
0.525818
0.524902
0.523376
0.523376
0.523376
0.522461
0.522766
0.521851
0.522461
0.522461
0.522766
0.523682
0.523376
0.523987
0.525818
0.525208
0.527344
0.528259
0.52948
0.530701
0.531311
0.533447
0.534363
0.536194
0.53772
0.539246
0.540771
0.541992
0.544434
0.546265
0.547791
0.550232
0.551758
0.553589
0.55603
0.557861
0.560303
0.561829
0.563965
0.566406
0.568848
0.570068
0.572815
0.574646
0.577698
0.579224
0.581055
0.583191
0.585327
0.587463
0.588989
0.590515
0.592651
0.594788
0.596008
0.59845
0.599976
0.601196
0.602722
0.603638
0.606079
0.606995
0.60791
0.608826
0.610046
0.611267
0.611877
0.613098
0.612793
0.613708
0.614319
0.615234
0.614929
0.61554
0.61615
0.61615
0.61676
0.61615
0.615845
0.61554
0.614624
0.614624
0.614014
0.612793
0.610962
0.610657
0.609436
0.607605
0.606384
0.605164
0.603638
0.602112
0.599365
0.597534
0.595703
0.593872
0.591431
0.588379
0.587463
0.584412
0.58197
0.579224
0.575867
0.573425
0.570984
0.567932
0.564575
0.562134
0.559082
0.55542
0.552063
0.549011
0.545654
0.542603
0.53894
0.535889
0.532837
0.52948
0.525818
0.521851
0.518494
0.514832
0.510559
0.506897
0.503235
0.499878
0.4953
0.492249
0.487366
0.483704
0.479126
0.475159
0.472107
0.467529
0.463562
0.45929
0.455627
0.45166
0.447388
0.44342
0.439758
0.435791
0.431519
0.426941
0.423584
0.419312
0.415039
0.411072
0.40741
0.404053
0.398865
0.395508
0.391846
0.388489
0.384521
0.381165
0.376892
0.373535
0.370178
0.366211
0.362549
0.358582
0.355225
0.351868
0.348511
0.344849
0.340576
0.33844
0.335388
0.332336
0.328369
0.325012
0.32196
0.318909
0.316467
0.313721
0.310974
0.307617
0.304871
0.302124
0.299072
0.296631
0.292969
0.290833
0.287476
0.284729
0.281677
0.278931
0.2771
0.274353
0.271606
0.26947
0.267029
0.263977
0.26123
0.259399
0.257874
0.254822
0.252686
0.250244
0.247803
0.246277
0.24353
0.241699
0.240173
0.237732
0.235291
0.233459
0.231323
0.230103
0.227661
0.22583
0.223694
0.220947
0.219727
0.218201
0.21637
0.214844
0.213318
0.211182
0.209961
0.208435
0.206909
0.204468
0.202942
0.202026
0.2005
0.198059
0.196838
0.195618
0.193787
0.192871
0.190735
0.189819
0.188293
0.187683
0.185242
0.184021
0.183105
0.181274
0.180664
0.179443
0.178223
0.176697
0.176392
0.174255
0.173035
0.172119
0.171204
0.169678
0.169067
0.167542
0.166626
0.166016
0.16571
0.16449
0.164185
0.162659
0.163269
0.162048
0.161133
0.160217
0.159302
0.158997
0.158386
0.158081
0.157166
0.15686
0.155334
0.15564
0.155029
0.154419
0.154419
0.152893
0.153503
0.152588
0.152283
0.151672
0.151978
0.151672
0.151367
0.151062
0.151062
0.150757
0.150452
0.150452
0.151367
0.150757
0.150452
0.151367
0.150757
0.151062
0.150757
0.150757
0.151672
0.151978
0.151978
0.151367
0.151672
0.151978
0.152283
0.151978
0.152588
0.151978
0.152283
0.151978
0.151672
0.151672
0.152283
0.152283
0.152283
0.152283
0.152893
0.152893
0.153503
0.152893
0.153198
0.153503
0.153198
0.153198
0.153809
0.154114
0.154419
0.154114
0.154724
0.154724
0.154114
0.153809
0.154419
0.154419
0.154114
0.154724
0.154419
0.154419
0.155334
0.155334
0.15564
0.155945
0.15625
0.155334
0.15564
0.155945
0.155945
0.15625
0.15625
0.155945
0.155945
0.156555
0.156555
0.15625
0.15686
0.156555
0.156555
0.155945
0.156555
0.15686
0.156555
0.15686
0.15686
0.156555
0.15686
0.15686
0.15686
0.156555
0.15625
0.155945
0.155945
0.15564
0.155334
0.155029
0.155334
0.155029
0.155029
0.154114
0.153809
0.154114
0.153198
0.152893
0.152893
0.151978
0.151978
0.150757
0.151062
0.150452
0.151672
0.150452
0.150452
0.149841
0.149536
0.149231
0.148621
0.148926
0.14801
0.148315
0.148621
0.147705
0.148315
0.147095
0.14801
0.147705
0.1474
0.147705
0.14801
0.1474
0.148315
0.148621
0.148621
0.148926
0.149536
0.149231
0.150757
0.150452
0.151367
0.151978
0.153198
0.154419
0.155029
0.15625
0.157471
0.158386
0.159912
0.163269
0.16449
0.166626
0.168762
0.171509
0.174561
0.177612
0.180969
0.184937
0.189514
0.193176
0.198059
0.202332
0.20813
0.213318
0.220032
0.226746
0.233459
0.241089
0.248108
0.257263
0.265503
0.274658
0.284119
0.294189
0.303955
0.314636
0.326843
0.338135
0.350342
0.36377
0.376892
0.39093
0.403748
0.419312
0.434265
0.450439
0.467224
0.483704
0.499878
0.517578
0.534668
0.552673
0.571289
0.5896
0.608521
0.626831
0.646973
0.667114
0.686646
0.706482
0.727844
0.747986
0.768127
0.788269
0.809326
0.829773
0.851135
0.871582
0.892029
0.912781
0.933533
0.953674
0.973816
0.993652
1.01349
1.03271
1.05347
1.07239
1.09192
1.10931
1.12793
1.14746
1.16455
1.18225
1.19904
1.21613
1.23322
1.25
1.26495
1.28174
1.29639
1.31134
1.32568
1.33942
1.35284
1.36536
1.37787
1.39069
1.40228
1.41327
1.42395
1.43433
1.4444
1.45416
1.46332
1.47186
1.4798
1.48712
1.49475
1.50146
1.50726
1.51276
1.51794
1.52344
1.52802
1.53229
1.53534
1.53748
1.54144
1.54388
1.54541
1.54724
1.54816
1.54877
1.54968
1.54999
1.54938
1.54938
1.54755
1.54724
1.54449
1.54297
1.53992
1.53809
1.53503
1.53168
1.52771
1.52435
1.52039
1.5152
1.51093
1.50696
1.50085
1.49658
1.49139
1.48529
1.4798
1.4743
1.4679
1.46179
1.45538
1.44836
1.44196
1.43494
1.42822
1.4209
1.41418
1.40717
1.39954
1.39252
1.38489
1.37787
1.37054
1.36353
1.35468
1.34796
1.34094
1.3324
1.32507
1.31775
1.31012
1.30127
1.29425
1.28601
1.27899
1.27075
1.26373
1.2561
1.24786
1.24084
1.23383
1.22559
1.21796
1.21094
1.20331
1.19568
1.18896
1.18164
1.17432
1.16669
1.15936
1.15204
1.14563
1.13861
1.13098
1.12396
1.11725
1.10992
1.10413
1.09619
1.09009
1.08368
1.07666
1.07025
1.06415
1.05743
1.05072
1.04462
1.0379
1.03149
1.02417
1.01776
1.01135
1.00494
0.99762
0.991821
0.984802
0.978699
0.97229
0.965271
0.957947
0.950928
0.944824
0.937805
0.931702
0.924072
0.917358
0.911255
0.903625
0.896301
0.889893
0.882568
0.874634
0.867004
0.861206
0.853577
0.845947
0.838623
0.831299
0.823364
0.816345
0.808411
0.801697
0.794373
0.787354
0.780029
0.772705
0.765991
0.758057
0.751038
0.743103
0.736084
0.727844
0.72113
0.714111
0.707397
0.700378
0.69397
0.686646
0.679016
0.672302
0.666199
0.660095
0.654297
0.647888
0.641174
0.635376
0.629578
0.623779
0.618286
0.613098
0.60791
0.602112
0.597839
0.592957
0.588379
0.584106
0.579529
0.575867
0.571289
0.567932
0.563965
0.560608
0.557251
0.55481
0.551453
0.548401
0.546265
0.543823
0.541992
0.539856
0.53772
0.535583
0.533142
0.532227
0.530396
0.52948
0.527344
0.526428
0.525513
0.525513
0.523682
0.524292
0.523071
0.523682
0.523376
0.523071
0.522766
0.523071
0.523071
0.523376
0.523987
0.524902
0.526123
0.526733
0.527649
0.527954
0.52948
0.529785
0.531311
0.532227
0.534058
0.534973
0.536194
0.53833
0.539551
0.541077
0.542297
0.544128
0.545959
0.547485
0.549011
0.549927
0.551758
0.553284
0.555115
0.556335
0.558167
0.559387
0.559998
0.562439
0.56366
0.565491
0.567017
0.567627
0.568848
0.570068
0.571899
0.57312
0.57373
0.574341
0.574341
0.574646
0.575867
0.576172
0.576477
0.577393
0.577393
0.577393
0.576477
0.576782
0.576782
0.576172
0.575256
0.574951
0.574646
0.574341
0.572815
0.572205
0.570679
0.569153
0.568848
0.567322
0.565491
0.564575
0.563049
0.561523
0.559998
0.557556
0.55603
0.554504
0.552673
0.550537
0.548706
0.54657
0.544434
0.542297
0.539856
0.538025
0.534973
0.532837
0.53009
0.527649
0.524597
0.523071
0.519104
0.516357
0.513306
0.509644
0.506592
0.503845
0.500793
0.497742
0.494385
0.491028
0.486755
0.484009
0.480957
0.47699
0.473938
0.469971
0.466309
0.462646
0.45929
0.455017
0.452271
0.447998
0.444336
0.440063
0.436401
0.432434
0.429077
0.42572
0.421448
0.41748
0.413513
0.408936
0.406189
0.401611
0.397644
0.393982
0.389709
0.385742
0.381775
0.377808
0.373535
0.369568
0.365601
0.361023
0.357361
0.354004
0.349731
0.346069
0.342407
0.338135
0.335083
0.330811
0.327454
0.323181
0.318909
0.316467
0.3125
0.308533
0.304871
0.300903
0.298157
0.294495
0.290833
0.288086
0.284119
0.281677
0.278015
0.274963
0.271301
0.26825
0.264893
0.263062
0.258484
0.256042
0.253296
0.250549
0.247498
0.243835
0.241699
0.238037
0.23468
0.232544
0.229187
0.226135
0.223694
0.221252
0.218201
0.215759
0.212708
0.209961
0.207825
0.204468
0.202637
0.200195
0.197449
0.194702
0.192871
0.190125
0.187378
0.185547
0.1828
0.180969
0.179138
0.176392
0.174561
0.172424
