0.0398254
0.0401306
0.0411987
0.0421143
0.042572
0.0440979
0.0454712
0.0469971
0.0485229
0.050354
0.0517273
0.0541687
0.0561523
0.0579834
0.059967
0.0619507
0.0645447
0.0663757
0.0686646
0.0706482
0.0727844
0.0750732
0.0775146
0.0793457
0.0822449
0.0846863
0.0869751
0.0894165
0.0915527
0.0941467
0.0964355
0.098877
0.100555
0.101929
0.103607
0.104828
0.106201
0.10788
0.10849
0.110474
0.111694
0.113831
0.115967
0.118103
0.120697
0.123749
0.126648
0.130157
0.133362
0.136871
0.140839
0.144196
0.1474
0.150757
0.153351
0.156403
0.158844
0.161591
0.164032
0.166473
0.168762
0.170746
0.172424
0.174561
0.176392
0.178375
0.179901
0.181427
0.183258
0.184937
0.18631
0.187378
0.188599
0.189514
0.190277
0.190887
0.191345
0.19165
0.192261
0.192566
0.192566
0.193024
0.193634
0.193329
0.193939
0.194244
0.194702
0.195465
0.195923
0.196228
0.196686
0.196838
0.196838
0.196686
0.196075
0.195465
0.194702
0.193481
0.192566
0.190735
0.188751
0.187683
0.185699
0.183563
0.181732
0.179443
0.176849
0.174561
0.172272
0.169525
0.166321
0.163727
0.160675
0.157013
0.153809
0.149994
0.145721
0.141754
0.137939
0.133362
0.128784
0.124512
0.120239
0.116119
0.111389
0.107574
0.102997
0.0993347
0.0950623
0.090332
0.0862122
0.0817871
0.0770569
0.0715637
0.0666809
0.0610352
0.0553894
0.0500488
0.0440979
0.0386047
0.032959
0.0271606
0.0219727
0.0163269
0.0111389
0.00610352
0.00106812
-0.0038147
-0.00808716
-0.0128174
-0.0170898
-0.0212097
-0.0256348
-0.0300598
-0.0340271
-0.0384521
-0.0427246
-0.0468445
-0.0508118
-0.0550842
-0.0588989
-0.062561
-0.0660706
-0.0692749
-0.0724792
-0.0756836
-0.0782776
-0.0808716
-0.0840759
-0.0866699
-0.0892639
-0.0924683
-0.0946045
-0.0975037
-0.100555
-0.102997
-0.105286
-0.10788
-0.110321
-0.112457
-0.115204
-0.117188
-0.118713
-0.119934
-0.121002
-0.121918
-0.121918
-0.121918
-0.12207
-0.12207
-0.121002
-0.121002
-0.120087
-0.119629
-0.119324
-0.118713
-0.118561
-0.118103
-0.117188
-0.11673
-0.116425
-0.115662
-0.115204
-0.114288
-0.113678
-0.11261
-0.111847
-0.110931
-0.109711
-0.108643
-0.107422
-0.106354
-0.105591
-0.10437
-0.103912
-0.103302
-0.102692
-0.102081
-0.101624
-0.101318
-0.100861
-0.0999451
-0.0996399
-0.0987244
-0.0978088
-0.0967407
-0.0956726
-0.0947571
-0.093689
-0.0923157
-0.091095
-0.0900269
-0.0889587
-0.0883484
-0.0871277
-0.0857544
-0.0849915
-0.0839233
-0.083313
-0.0822449
-0.0813293
-0.0810242
-0.0798035
-0.0791931
-0.0779724
-0.0767517
-0.0752258
-0.0743103
-0.0732422
-0.0717163
-0.0709534
-0.0701904
-0.0694275
-0.0692749
-0.0694275
-0.0694275
-0.0698853
-0.0706482
-0.0712585
-0.0718689
-0.0720215
-0.0727844
-0.072937
-0.0733948
-0.0732422
-0.072937
-0.0727844
-0.0723267
-0.0717163
-0.0709534
-0.070343
-0.0698853
-0.0689697
-0.0680542
-0.0671387
-0.0666809
-0.065918
-0.0646973
-0.0639343
-0.0630188
-0.0624084
-0.0614929
-0.0605774
-0.0595093
-0.0585938
-0.0572205
-0.0559998
-0.0549316
-0.0540161
-0.052948
-0.0517273
-0.0506592
-0.0497437
-0.0495911
-0.0488281
-0.0491333
-0.0488281
-0.0488281
-0.0492859
-0.0498962
-0.050354
-0.0506592
-0.0517273
-0.0523376
-0.0527954
-0.052948
-0.052948
-0.0537109
-0.0534058
-0.0531006
-0.0526428
-0.0524902
-0.0524902
-0.0518799
-0.0523376
-0.0521851
-0.0521851
-0.0524902
-0.0527954
-0.052948
-0.0535583
-0.0535583
-0.0537109
-0.0537109
-0.0537109
-0.0532532
-0.0537109
-0.0535583
-0.0537109
-0.0537109
-0.0537109
-0.0543213
-0.0546265
-0.055542
-0.0558472
-0.0566101
-0.0575256
-0.0582886
-0.0588989
-0.0592041
-0.0598145
-0.0601196
-0.0608826
-0.0608826
-0.0611877
-0.0610352
-0.0602722
-0.06073
-0.0602722
-0.0593567
-0.0592041
-0.0590515
-0.0585938
-0.0584412
-0.0582886
-0.0578308
-0.058136
-0.0578308
-0.0575256
-0.0576782
-0.0576782
-0.0572205
-0.0567627
-0.0566101
-0.055542
-0.0547791
-0.0540161
-0.0531006
-0.0520325
-0.0509644
-0.0497437
-0.0491333
-0.0486755
-0.0479126
-0.0476074
-0.0473022
-0.04776
-0.0482178
-0.0485229
-0.0488281
-0.0495911
-0.0498962
-0.0506592
-0.0506592
-0.0512695
-0.0514221
-0.0517273
-0.0517273
-0.0520325
-0.0517273
-0.0518799
-0.0520325
-0.0520325
-0.0524902
-0.0527954
-0.0531006
-0.0532532
-0.0535583
-0.0531006
-0.0531006
-0.052948
-0.0524902
-0.0521851
-0.0511169
-0.0505066
-0.0492859
-0.0482178
-0.0471497
-0.045929
-0.0450134
-0.043335
-0.0421143
-0.0411987
-0.0404358
-0.039978
-0.0398254
-0.0395203
-0.0393677
-0.0393677
-0.0393677
-0.0396729
-0.0402832
-0.039978
-0.0401306
-0.039978
-0.0398254
-0.0395203
-0.0389099
-0.038147
-0.0375366
-0.0369263
-0.0360107
-0.0350952
-0.0344849
-0.0332642
-0.0325012
-0.0320435
-0.0315857
-0.0311279
-0.0309753
-0.030365
-0.0306702
-0.0300598
-0.0297546
-0.0297546
-0.0294495
-0.0288391
-0.0288391
-0.0286865
-0.0285339
-0.0285339
-0.0283813
-0.0283813
-0.0286865
-0.0286865
-0.0285339
-0.0283813
-0.0280762
-0.027771
-0.0276184
-0.0274658
-0.0270081
-0.0267029
-0.0262451
-0.0260925
-0.0256348
-0.0248718
-0.0242615
-0.0234985
-0.0227356
-0.0221252
-0.0212097
-0.0205994
-0.0201416
-0.0198364
-0.0195312
-0.0193787
-0.0193787
-0.0193787
-0.0196838
-0.0193787
-0.0193787
-0.0189209
-0.0186157
-0.018158
-0.0172424
-0.0167847
-0.0158691
-0.0151062
-0.0144958
-0.0138855
-0.0138855
-0.0143433
-0.0143433
-0.0149536
-0.015564
-0.0163269
-0.0170898
-0.0178528
-0.0192261
-0.0204468
-0.0210571
-0.0219727
-0.0221252
-0.0224304
-0.0219727
-0.0215149
-0.0210571
-0.0201416
-0.0190735
-0.018158
-0.0170898
-0.0163269
-0.0154114
-0.0151062
-0.014801
-0.0138855
-0.0132751
-0.01297
-0.0128174
-0.012207
-0.0119019
-0.0112915
-0.0109863
-0.0105286
-0.010376
-0.010376
-0.00991821
-0.0100708
-0.00946045
-0.00930786
-0.00900269
-0.00900269
-0.00930786
-0.00946045
-0.010376
-0.010376
-0.0111389
-0.0117493
-0.012207
-0.01297
-0.0132751
-0.0134277
-0.0135803
-0.0141907
-0.0138855
-0.0134277
-0.0134277
-0.0131226
-0.0126648
-0.012207
-0.0111389
-0.0111389
-0.0106812
-0.0106812
-0.0108337
-0.0105286
-0.0105286
-0.010376
-0.0105286
-0.0102234
-0.0105286
-0.010376
-0.0105286
-0.010376
-0.0100708
-0.0100708
-0.00976562
-0.00930786
-0.00839233
-0.00793457
-0.00701904
-0.00640869
-0.0062561
-0.00549316
-0.00518799
-0.00488281
-0.00457764
-0.00473022
-0.00442505
-0.00442505
-0.00442505
-0.00427246
-0.00457764
-0.00473022
-0.00427246
-0.00442505
-0.00350952
-0.00335693
-0.00228882
-0.00167847
-0.000762939
0.000152588
0.00106812
0.00213623
0.00366211
0.00442505
0.00656128
0.00854492
0.0109863
0.0132751
0.0167847
0.020752
0.0253296
0.0296021
0.03479
0.0396729
0.0439453
0.0491333
0.0538635
0.0590515
0.0636292
0.0674438
0.0708008
0.0737
0.0767517
0.0788879
0.0805664
0.0822449
0.0830078
0.0839233
0.0842285
0.0848389
0.0856018
0.085907
0.0865173
0.0871277
0.0878906
0.0889587
0.090332
0.0915527
0.0935364
0.0941467
0.096283
0.0970459
0.0979614
0.098877
0.100555
0.101318
0.102692
0.10376
0.104218
0.10437
0.105438
0.105743
0.105438
0.105133
0.104523
0.103912
0.103149
0.101929
0.10025
0.0976562
0.0956726
0.0921631
0.0881958
0.0834656
0.0788879
0.0730896
0.0668335
0.0604248
0.0531006
0.0453186
0.038147
0.030365
0.0231934
0.0157166
0.00823975
0.000915527
-0.00656128
-0.0131226
-0.019989
-0.0265503
-0.0331116
-0.0392151
-0.0442505
-0.0495911
-0.0541687
-0.0578308
-0.0608826
-0.0631714
-0.0654602
-0.0663757
-0.0674438
-0.0674438
-0.0669861
-0.0665283
-0.065918
-0.0648499
-0.0639343
-0.0624084
-0.0613403
-0.0604248
-0.0596619
-0.0585938
-0.058136
-0.0576782
-0.057373
-0.057373
-0.057373
-0.0570679
-0.0575256
-0.0572205
-0.0569153
-0.0567627
-0.0566101
-0.0564575
-0.0558472
-0.0553894
-0.0547791
-0.0541687
-0.0532532
-0.052948
-0.0523376
-0.0523376
-0.0514221
-0.0508118
-0.050354
-0.0502014
-0.0492859
-0.0485229
-0.0479126
-0.0466919
-0.0454712
-0.0445557
-0.0434875
-0.0422668
-0.0404358
-0.0398254
-0.0384521
-0.0369263
-0.0360107
-0.0346375
-0.0334167
-0.0323486
-0.0315857
-0.0309753
-0.0305176
-0.0306702
-0.0308228
-0.0318909
-0.032959
-0.0343323
-0.0364685
-0.0386047
-0.0411987
-0.0437927
-0.0466919
-0.0494385
-0.0517273
-0.0532532
-0.0544739
-0.0544739
-0.0534058
-0.0505066
-0.045929
-0.0379944
-0.027771
-0.0138855
0.00411987
0.0254822
0.0514221
0.0817871
0.116119
0.154266
0.196075
0.241852
0.291138
0.343018
0.398712
0.457306
0.517273
0.578766
0.638733
0.697479
0.752411
0.802765
0.846558
0.884094
0.914154
0.936584
0.950775
0.955658
0.951385
0.937347
0.913544
0.879974
0.837555
0.786438
0.727844
0.662994
0.592804
0.518188
0.440826
0.361633
0.282288
0.203857
0.127563
0.0549316
-0.01297
-0.0761414
-0.132904
-0.182953
-0.225983
-0.261841
-0.290375
-0.31189
-0.326233
-0.334625
-0.337219
-0.33493
-0.328217
-0.317841
-0.304871
-0.289917
-0.273285
-0.255127
-0.236664
-0.218048
-0.199738
-0.18158
-0.164032
-0.147552
-0.132294
-0.117493
-0.104523
-0.0923157
-0.0822449
-0.0735474
-0.0662231
-0.0605774
-0.0564575
-0.0543213
-0.052948
-0.0531006
-0.0544739
-0.0563049
-0.0588989
-0.0619507
-0.0653076
-0.0688171
-0.0714111
-0.0743103
-0.0764465
-0.0787354
-0.0798035
-0.0808716
-0.0814819
-0.0813293
-0.0804138
-0.0799561
-0.0790405
-0.078125
-0.0770569
-0.0756836
-0.0746155
-0.072937
-0.0718689
-0.0706482
-0.0698853
-0.0688171
-0.0683594
-0.0675964
-0.0666809
-0.0662231
-0.0654602
-0.0645447
-0.0637817
-0.0631714
-0.0617981
-0.06073
-0.0596619
-0.0585938
-0.0576782
-0.0564575
-0.0550842
-0.0535583
-0.0521851
-0.0506592
-0.0492859
-0.0476074
-0.0465393
-0.0453186
-0.0434875
-0.0416565
-0.0401306
-0.0387573
-0.0370789
-0.0357056
-0.0344849
-0.0331116
-0.0325012
-0.032196
-0.0317383
-0.0320435
-0.0323486
-0.0325012
-0.0331116
-0.0334167
-0.0338745
-0.0343323
-0.03479
-0.0344849
-0.0343323
-0.0334167
-0.032959
-0.0315857
-0.0306702
-0.0286865
-0.0271606
-0.0254822
-0.0236511
-0.0222778
-0.0209045
-0.0193787
-0.0184631
-0.0169373
-0.0158691
-0.0151062
-0.0141907
-0.0140381
-0.0131226
-0.0126648
-0.0119019
-0.0114441
-0.0109863
-0.0105286
-0.00976562
-0.00946045
-0.00869751
-0.00793457
-0.00793457
-0.00701904
-0.00656128
-0.00579834
-0.00549316
-0.00457764
-0.00427246
-0.00350952
-0.00305176
-0.00167847
-0.00106812
0.000457764
0.00167847
0.00320435
0.00488281
0.00686646
0.00839233
0.010376
0.0117493
0.0132751
0.0149536
0.0161743
0.0170898
0.0180054
0.0187683
0.0195312
0.0201416
0.0215149
0.0219727
0.0230408
0.0241089
0.0248718
0.0260925
0.0274658
0.0286865
0.0306702
0.0317383
0.0334167
0.0352478
0.0369263
0.0379944
0.0392151
0.0401306
0.0404358
0.0413513
0.0419617
0.0419617
0.0421143
0.0424194
0.0424194
0.0428772
0.0431824
0.0439453
0.0442505
0.0453186
0.0466919
0.0480652
0.0495911
0.0515747
0.0532532
0.0556946
0.0575256
0.059967
0.0619507
0.0642395
0.0657654
0.067749
0.0698853
0.0718689
0.0730896
0.0750732
0.0767517
0.0785828
0.080719
0.0822449
0.0842285
0.0863647
0.0875854
0.0900269
0.0915527
0.0932312
0.0949097
0.0959778
0.0968933
0.0978088
0.0990295
0.0997925
0.100555
0.101624
0.102692
0.10376
0.105133
0.106659
0.108337
0.110321
0.112457
0.114441
0.116882
0.118866
0.12146
0.123749
0.125885
0.128174
0.130157
0.132141
0.133972
0.135803
0.137329
0.138702
0.140533
0.141602
0.142822
0.144653
0.146179
0.147552
0.148926
0.150757
0.15213
0.153961
0.155487
0.156708
0.157928
0.159149
0.159607
0.160065
0.160217
0.16098
0.161438
0.161896
0.161591
0.161896
0.161591
0.161896
0.161896
0.161591
0.161896
0.162201
0.162201
0.162506
0.162354
0.162201
0.162201
0.161743
0.161285
0.160522
0.15976
0.158997
0.157776
0.15686
0.155334
0.154419
0.153198
0.151978
0.150604
0.149078
0.148163
0.14679
0.145111
0.143585
0.142212
0.140076
0.137787
0.134735
0.132141
0.129395
0.126038
0.123138
0.119629
0.116119
0.112762
0.109406
0.105743
0.102234
0.098877
0.09552
0.0917053
0.0880432
0.0846863
0.0811768
0.0776672
0.0737
0.0698853
0.065918
0.0613403
0.0566101
0.0521851
0.04776
0.0430298
0.0387573
0.0341797
0.0294495
0.0253296
0.0209045
0.0170898
0.0131226
0.00946045
0.00549316
0.00213623
-0.00106812
-0.00473022
-0.00823975
-0.0115967
-0.0158691
-0.0193787
-0.0230408
-0.0270081
-0.0308228
-0.03479
-0.0379944
-0.0415039
-0.0445557
-0.0476074
-0.050354
-0.0527954
-0.0550842
-0.0570679
-0.0584412
-0.0596619
-0.0611877
-0.0622559
-0.0634766
-0.0645447
-0.0657654
-0.0665283
-0.0675964
-0.0688171
-0.0700378
-0.0704956
-0.0718689
-0.0727844
-0.0737
-0.0744629
-0.0750732
-0.0750732
-0.0756836
-0.0758362
-0.0756836
-0.0749207
-0.0747681
-0.0747681
-0.0744629
-0.0743103
-0.0740051
-0.0740051
-0.0741577
-0.0743103
-0.0743103
-0.0743103
-0.0746155
-0.0753784
-0.0753784
-0.0756836
-0.075531
-0.0753784
-0.075531
-0.0756836
-0.0749207
-0.0750732
-0.0749207
-0.0744629
-0.0738525
-0.0735474
-0.0733948
-0.0730896
-0.0724792
-0.0723267
-0.0717163
-0.0708008
-0.0704956
-0.0695801
-0.0688171
-0.0675964
-0.0668335
-0.0654602
-0.0642395
-0.0630188
-0.0616455
-0.0604248
-0.0584412
-0.0575256
-0.0563049
-0.0552368
-0.0544739
-0.0541687
-0.052948
-0.052948
-0.0526428
-0.0518799
-0.0515747
-0.0512695
-0.0506592
-0.0500488
-0.0491333
-0.0485229
-0.0473022
-0.0460815
-0.0448608
-0.0436401
-0.0421143
-0.0405884
-0.0395203
-0.0382996
-0.0375366
-0.0370789
-0.0363159
-0.0357056
-0.035553
-0.0357056
-0.0358582
-0.035553
-0.0357056
-0.0361633
-0.0360107
-0.0358582
-0.0357056
-0.035553
-0.0357056
-0.0354004
-0.0352478
-0.03479
-0.0344849
-0.0341797
-0.0343323
-0.0341797
-0.0341797
-0.0344849
-0.0338745
-0.0341797
-0.0340271
-0.0341797
-0.03479
-0.0349426
-0.0346375
-0.0343323
-0.0338745
-0.0335693
-0.0334167
-0.0328064
-0.0325012
-0.0315857
-0.0317383
-0.0312805
-0.0314331
-0.0317383
-0.0317383
-0.0325012
-0.0326538
-0.032959
-0.0332642
-0.0341797
-0.0341797
-0.0344849
-0.0341797
-0.03479
-0.0344849
-0.0341797
-0.0337219
-0.0338745
-0.0331116
-0.0332642
-0.0331116
-0.0331116
-0.0332642
-0.0334167
-0.0332642
-0.0341797
-0.0346375
-0.0343323
-0.0349426
-0.035553
-0.0357056
-0.0361633
-0.0361633
-0.0360107
-0.0357056
-0.035553
-0.0352478
-0.0352478
-0.0344849
-0.0341797
-0.0338745
-0.0338745
-0.0337219
-0.0344849
-0.0344849
-0.0350952
-0.0352478
-0.0358582
-0.0363159
-0.0363159
-0.0369263
-0.0375366
-0.0376892
-0.0378418
-0.0376892
-0.038147
-0.0378418
-0.0375366
-0.0376892
-0.0370789
-0.037384
-0.0375366
-0.037384
-0.0378418
-0.038147
-0.0382996
-0.0384521
-0.0386047
-0.0389099
-0.0392151
-0.0395203
-0.0396729
-0.0396729
-0.0392151
-0.0389099
-0.0389099
-0.0386047
-0.038147
-0.038147
-0.0378418
-0.0375366
-0.0378418
-0.0378418
-0.0378418
-0.038147
-0.0384521
-0.0389099
-0.0392151
-0.0396729
-0.0401306
-0.0404358
-0.040741
-0.040741
-0.0408936
-0.0404358
-0.0402832
-0.039978
-0.0392151
-0.0389099
-0.0386047
-0.0379944
-0.0376892
-0.0372314
-0.037384
-0.037384
-0.0376892
-0.0375366
-0.0378418
-0.0379944
-0.038147
-0.0382996
-0.0384521
-0.038147
-0.0379944
-0.0379944
-0.037384
-0.037384
-0.0367737
-0.0360107
-0.0360107
-0.035553
-0.0354004
-0.0354004
-0.0350952
-0.0357056
-0.0357056
-0.035553
-0.0360107
-0.0361633
-0.0360107
-0.0363159
-0.0364685
-0.0360107
-0.0360107
-0.0360107
-0.0358582
-0.0354004
-0.0349426
-0.0349426
-0.0341797
-0.0341797
-0.0341797
-0.0338745
-0.0337219
-0.0340271
-0.0338745
-0.0341797
-0.0344849
-0.0344849
-0.0349426
-0.0349426
-0.0349426
-0.0350952
-0.0349426
-0.0341797
-0.0338745
-0.032959
-0.0328064
-0.0318909
-0.0315857
-0.0306702
-0.0309753
-0.0305176
-0.030365
-0.030365
-0.030365
-0.0308228
-0.0309753
-0.0309753
-0.0315857
-0.0311279
-0.0311279
-0.0311279
-0.030365
-0.0297546
-0.0296021
-0.0286865
-0.0279236
-0.0274658
-0.0262451
-0.0254822
-0.025177
-0.0247192
-0.0248718
-0.0247192
-0.0247192
-0.0245667
-0.0244141
-0.0247192
-0.0248718
-0.0248718
-0.0250244
-0.0250244
-0.025177
-0.0248718
-0.0250244
-0.025177
-0.0250244
-0.0250244
-0.0245667
-0.0244141
-0.0247192
-0.0247192
-0.0247192
-0.0247192
-0.0250244
-0.0254822
-0.0260925
-0.0265503
-0.0268555
-0.0271606
-0.0268555
-0.0274658
-0.0271606
-0.0268555
-0.0268555
-0.0262451
-0.0257874
-0.0254822
-0.0247192
-0.0238037
-0.0228882
-0.0219727
-0.0205994
-0.0189209
-0.0172424
-0.0152588
-0.012207
-0.00946045
-0.0062561
-0.00289917
0.00152588
0.00610352
0.0108337
0.0163269
0.0219727
0.0280762
0.0341797
0.039978
0.0450134
0.0511169
0.0556946
0.0608826
0.0654602
0.0692749
0.0726318
0.0758362
0.0782776
0.080719
0.0820923
0.0837708
0.0852966
0.0865173
0.0874329
0.088501
0.0892639
0.0898743
0.0898743
0.0906372
0.0909424
0.0909424
0.0909424
0.0912476
0.0912476
0.0909424
0.091095
0.0904846
0.090332
0.0900269
0.0900269
0.090332
0.090332
0.0901794
0.0904846
0.090332
0.0901794
0.0898743
0.0895691
0.0889587
0.0881958
0.0871277
0.085144
0.0834656
0.0802612
0.0769043
0.0733948
0.0691223
0.0640869
0.0587463
0.0524902
0.0462341
0.0398254
0.0331116
0.0260925
0.0184631
0.0105286
0.00320435
-0.00366211
-0.0112915
-0.018158
-0.0250244
-0.032196
-0.0390625
-0.045929
-0.0518799
-0.0578308
-0.063324
-0.067749
-0.0727844
-0.0762939
-0.0793457
-0.0817871
-0.0840759
-0.085144
-0.085907
-0.0862122
-0.0863647
-0.0862122
-0.0852966
-0.0842285
-0.0839233
-0.083313
-0.08255
-0.0819397
-0.0811768
-0.0805664
-0.0801086
-0.0796509
-0.0791931
-0.0787354
-0.0787354
-0.0784302
-0.0782776
-0.0776672
-0.0767517
-0.0761414
-0.0753784
-0.0750732
-0.0743103
-0.0730896
-0.072937
-0.0727844
-0.072937
-0.0721741
-0.0724792
-0.0723267
-0.0724792
-0.0726318
-0.0723267
-0.0723267
-0.0720215
-0.0714111
-0.071106
-0.0704956
-0.0698853
-0.068512
-0.0679016
-0.0665283
-0.0654602
-0.0645447
-0.0631714
-0.0621033
-0.0611877
-0.06073
-0.0601196
-0.0595093
-0.0590515
-0.0587463
-0.0584412
-0.0588989
-0.0598145
-0.0604248
-0.0614929
-0.0628662
-0.0643921
-0.065918
-0.0679016
-0.0694275
-0.0712585
-0.0726318
-0.0740051
-0.0744629
-0.0744629
-0.0732422
-0.0704956
-0.0662231
-0.0593567
-0.0498962
-0.0372314
-0.0212097
-0.0012207
0.0230408
0.0512695
0.0834656
0.120697
0.161133
0.205688
0.254211
0.306244
0.360718
0.418854
0.479279
0.540771
0.603485
0.665283
0.724792
0.780334
0.830231
0.874023
0.909576
0.937805
0.957489
0.967865
0.968628
0.958557
0.938263
0.906982
0.865173
0.813446
0.752716
0.684204
0.609283
0.528564
0.444946
0.358734
0.271912
0.186005
0.102386
0.0222778
-0.0531006
-0.122375
-0.184784
-0.238953
-0.284424
-0.321198
-0.348969
-0.367889
-0.378571
-0.38147
-0.377655
-0.367889
-0.353241
-0.33432
-0.3125
-0.289154
-0.26413
-0.238342
-0.21286
-0.189056
-0.165863
-0.144501
-0.124817
-0.106964
-0.0914001
-0.0782776
-0.0672913
-0.0585938
-0.0524902
-0.0479126
-0.0453186
-0.0447083
-0.045929
-0.0485229
-0.0515747
-0.0556946
-0.0605774
-0.065155
-0.0701904
-0.0749207
-0.0794983
-0.0830078
-0.0860596
-0.0888062
-0.090332
-0.0909424
-0.0915527
-0.0909424
-0.0901794
-0.0886536
-0.0869751
-0.0852966
-0.0830078
-0.0814819
-0.0793457
-0.0775146
-0.0759888
-0.0743103
-0.0732422
-0.0715637
-0.0704956
-0.0692749
-0.068512
-0.0671387
-0.0660706
-0.065155
-0.0642395
-0.0631714
-0.0622559
-0.0616455
-0.06073
-0.059967
-0.0595093
-0.0592041
-0.0585938
-0.0579834
-0.0575256
-0.0572205
-0.0566101
-0.0561523
-0.0553894
-0.0550842
-0.0543213
-0.0535583
-0.052948
-0.0517273
-0.0508118
-0.0502014
-0.0486755
-0.04776
-0.0466919
-0.045929
-0.0454712
-0.0447083
-0.0444031
-0.0434875
-0.0434875
-0.0428772
-0.0422668
-0.0421143
-0.0415039
-0.0405884
-0.0401306
-0.0389099
-0.0378418
-0.0366211
-0.0352478
-0.0338745
-0.0326538
-0.0308228
-0.0294495
-0.0280762
-0.0267029
-0.0256348
-0.025177
-0.0238037
-0.0228882
-0.0224304
-0.0210571
-0.0209045
-0.019989
-0.0193787
-0.0184631
-0.017395
-0.0164795
-0.0154114
-0.0137329
-0.0126648
-0.0114441
-0.0100708
-0.00900269
-0.00793457
-0.00671387
-0.00610352
-0.0050354
-0.00457764
-0.00335693
-0.00305176
-0.00228882
-0.00167847
-0.000915527
0.0
0.000610352
0.00183105
0.00335693
0.00427246
0.00534058
0.00686646
0.00839233
0.00991821
0.0108337
0.0126648
0.0135803
0.014801
0.0157166
0.0170898
0.017395
0.0186157
0.0196838
0.019989
0.0205994
0.0218201
0.0228882
0.0239563
0.0254822
0.0271606
0.0286865
0.0300598
0.0318909
0.0341797
0.035553
0.0376892
0.0390625
0.0402832
0.0418091
0.0430298
0.0444031
0.045929
0.0466919
0.0480652
0.0492859
0.0506592
0.0517273
0.0532532
0.0547791
0.0563049
0.0575256
0.0595093
0.0611877
0.0630188
0.0645447
0.0663757
0.067749
0.0691223
0.0704956
0.0715637
0.0732422
0.0740051
0.075531
0.0764465
0.0776672
0.0787354
0.0801086
0.0823975
0.0840759
0.0860596
0.0880432
0.0901794
0.0923157
0.0946045
0.0973511
0.0994873
0.101624
0.103455
0.105591
0.107117
0.109558
0.111237
0.113373
0.115204
0.117035
0.119019
0.121613
0.123749
0.12619
0.128632
0.131226
0.133972
0.136871
0.139618
0.142822
0.145264
0.147858
0.150146
0.152435
0.154877
0.156708
0.158844
0.16098
0.162354
0.164642
0.166321
0.168152
0.170135
0.172119
0.173645
0.175476
0.177155
0.17868
0.180817
0.181885
0.183411
0.184174
0.185089
0.186157
0.186768
0.187073
0.187073
0.187988
0.187988
0.188293
0.188293
0.188599
0.188904
0.189362
0.189972
0.190735
0.191193
0.19165
0.192108
0.192566
0.193024
0.192566
0.192566
0.19165
0.19165
0.190735
0.189972
0.188599
0.187073
0.185547
0.183868
0.18219
0.180511
0.17868
0.177307
0.175171
0.173035
0.171204
0.168762
0.166168
0.163574
0.16037
0.157166
0.153503
0.149841
0.146027
0.141602
0.137634
0.133057
0.128174
0.123596
0.118866
0.114288
0.109863
0.105286
0.100403
0.0956726
0.0912476
0.0866699
0.0816345
0.0767517
0.0718689
0.0669861
0.0617981
0.0566101
0.0514221
0.045929
0.0405884
0.0360107
0.0308228
0.0259399
0.0209045
0.0161743
0.0115967
0.00747681
0.00320435
-0.000610352
-0.00473022
-0.0088501
-0.0126648
-0.0163269
-0.020752
-0.0245667
-0.0292969
-0.0332642
-0.037384
-0.0415039
-0.0457764
-0.0494385
-0.0537109
-0.0572205
-0.06073
-0.0643921
-0.0672913
-0.0701904
-0.0727844
-0.0756836
-0.0779724
-0.0802612
-0.0823975
-0.0846863
-0.0871277
-0.0892639
-0.0915527
-0.0932312
-0.0952148
-0.0971985
-0.0987244
-0.100403
-0.101929
-0.103302
-0.103912
-0.10498
-0.105743
-0.106201
-0.106354
-0.106506
-0.106049
-0.106049
-0.105743
-0.105743
-0.105286
-0.105591
-0.105133
-0.105133
-0.105286
-0.105286
-0.10498
-0.10498
-0.10498
-0.104675
-0.104218
-0.103912
-0.103149
-0.102386
-0.101624
-0.100708
-0.0999451
-0.0985718
-0.0979614
-0.0971985
-0.096283
-0.0958252
-0.0958252
-0.0947571
-0.0942993
-0.0938416
-0.0932312
-0.092926
-0.0923157
-0.0915527
-0.0906372
-0.0897217
-0.0888062
-0.0872803
-0.0862122
-0.0848389
-0.083313
-0.0816345
-0.0804138
-0.0788879
-0.0778198
-0.0769043
-0.0756836
-0.0746155
-0.0738525
-0.0733948
-0.0727844
-0.0718689
-0.0712585
-0.0708008
-0.0698853
-0.0692749
-0.0680542
-0.0672913
-0.0662231
-0.0646973
-0.0640869
-0.0628662
-0.0616455
-0.06073
-0.0601196
-0.0593567
-0.0588989
-0.058136
-0.0575256
-0.0570679
-0.0570679
-0.0567627
-0.0559998
-0.0558472
-0.0552368
-0.0549316
-0.0543213
-0.0537109
-0.0532532
-0.0521851
-0.0515747
-0.0509644
-0.0500488
-0.0497437
-0.0494385
-0.0491333
-0.0485229
-0.0488281
-0.0486755
-0.0491333
-0.0491333
-0.0491333
-0.0491333
-0.0492859
-0.0492859
-0.0491333
-0.0486755
-0.0483704
-0.0479126
-0.0479126
-0.0469971
-0.0465393
-0.0463867
-0.0457764
-0.0454712
-0.0456238
-0.0457764
-0.0457764
-0.0462341
-0.0463867
-0.0466919
-0.0476074
-0.04776
-0.0486755
-0.0491333
-0.0497437
-0.0497437
-0.0498962
-0.0502014
-0.0506592
-0.050354
-0.0502014
-0.050354
-0.0508118
-0.0508118
-0.0517273
-0.0524902
-0.0534058
-0.0540161
-0.0546265
-0.0556946
-0.0567627
-0.0572205
-0.0582886
-0.0585938
-0.0596619
-0.059967
-0.0601196
-0.0604248
-0.0604248
-0.0604248
-0.0602722
-0.0601196
-0.0602722
-0.0604248
-0.06073
-0.0614929
-0.0619507
-0.0624084
-0.0630188
-0.0640869
-0.0646973
-0.0653076
-0.065918
-0.0663757
-0.0669861
-0.0672913
-0.0674438
-0.067749
-0.067749
-0.067749
-0.0680542
-0.0679016
-0.0679016
-0.0682068
-0.0683594
-0.068512
-0.0691223
-0.0694275
-0.0691223
-0.0700378
-0.0698853
-0.070343
-0.0700378
-0.0704956
-0.0706482
-0.0706482
-0.0706482
-0.0708008
-0.070343
-0.0701904
-0.0700378
-0.070343
-0.070343
-0.0704956
-0.0708008
-0.0714111
-0.0721741
-0.0727844
-0.072937
-0.0740051
-0.0746155
-0.0753784
-0.075531
-0.0758362
-0.0762939
-0.0761414
-0.075531
-0.075531
-0.0747681
-0.0741577
-0.0732422
-0.0726318
-0.0724792
-0.0718689
-0.0715637
-0.0715637
-0.0715637
-0.0714111
-0.0715637
-0.0718689
-0.0717163
-0.0720215
-0.0721741
-0.0721741
-0.0718689
-0.0720215
-0.0714111
-0.071106
-0.0706482
-0.0704956
-0.0704956
-0.0700378
-0.0701904
-0.0700378
-0.0698853
-0.0704956
-0.0708008
-0.0709534
-0.0712585
-0.0717163
-0.0717163
-0.0717163
-0.0717163
-0.0718689
-0.0715637
-0.0715637
-0.0706482
-0.070343
-0.0694275
-0.0689697
-0.0679016
-0.0669861
-0.0666809
-0.0662231
-0.0657654
-0.0657654
-0.0654602
-0.0656128
-0.065918
-0.065918
-0.0662231
-0.0665283
-0.0666809
-0.0668335
-0.0666809
-0.0669861
-0.0666809
-0.0665283
-0.0662231
-0.0662231
-0.0656128
-0.065155
-0.0653076
-0.0650024
-0.065155
-0.0645447
-0.0650024
-0.0653076
-0.0653076
-0.0654602
-0.0656128
-0.0657654
-0.0657654
-0.0654602
-0.065155
-0.0646973
-0.0643921
-0.0634766
-0.0630188
-0.062561
-0.0617981
-0.0608826
-0.0601196
-0.059967
-0.0596619
-0.0595093
-0.0593567
-0.0590515
-0.0592041
-0.0595093
-0.0596619
-0.0598145
-0.059967
-0.0596619
-0.0598145
-0.059967
-0.0593567
-0.0590515
-0.0585938
-0.058136
-0.0578308
-0.0572205
-0.0567627
-0.0566101
-0.0566101
-0.0566101
-0.0564575
-0.0559998
-0.0564575
-0.0564575
-0.0564575
-0.0564575
-0.0561523
-0.0556946
-0.0552368
-0.0544739
-0.0540161
-0.0532532
-0.0524902
-0.0520325
-0.0508118
-0.0505066
-0.0498962
-0.0494385
-0.0492859
-0.0494385
-0.0491333
-0.0489807
-0.0494385
-0.0495911
-0.0494385
-0.0495911
-0.0495911
-0.0492859
-0.0491333
-0.0485229
-0.0482178
-0.0479126
-0.0474548
-0.0462341
-0.0454712
-0.0448608
-0.0442505
-0.0434875
-0.0431824
-0.0431824
-0.0422668
-0.0419617
-0.0419617
-0.0411987
-0.0416565
-0.0410461
-0.0411987
-0.040741
-0.039978
-0.0398254
-0.0389099
-0.038147
-0.0370789
-0.0363159
-0.035553
-0.0349426
-0.0340271
-0.0335693
-0.0331116
-0.0328064
-0.0325012
-0.0323486
-0.0326538
-0.0323486
-0.032196
-0.032196
-0.0318909
-0.0315857
-0.0311279
-0.0306702
-0.0300598
-0.0296021
-0.0288391
-0.0282288
-0.0279236
-0.0271606
-0.0263977
-0.0260925
-0.0263977
-0.0260925
-0.0263977
-0.0267029
-0.0271606
-0.0274658
-0.027771
-0.0280762
-0.0285339
-0.0291443
-0.0286865
-0.0286865
-0.0282288
-0.0279236
-0.027771
-0.0267029
-0.0265503
-0.0256348
-0.0253296
-0.0244141
-0.0234985
-0.0230408
-0.0227356
-0.0210571
-0.0198364
-0.0183105
-0.0161743
-0.0140381
-0.0109863
-0.00823975
-0.00457764
-0.000457764
0.00411987
0.0088501
0.0140381
0.0195312
0.0254822
0.0311279
0.0366211
0.0411987
0.0465393
0.0512695
0.0561523
0.0604248
0.0648499
0.068512
0.0718689
0.0750732
0.0779724
0.0804138
0.0827026
0.0845337
0.0866699
0.0886536
0.0897217
0.091095
0.0926208
0.0935364
0.0944519
0.0947571
0.0947571
0.0950623
0.0950623
0.09552
0.09552
0.0956726
0.0958252
0.0958252
0.0958252
0.0959778
0.0961304
0.096283
0.0971985
0.0973511
0.0978088
0.0978088
0.0976562
0.0973511
0.0965881
0.0953674
0.0939941
0.0920105
0.0900269
0.0875854
0.0846863
0.0811768
0.0772095
0.072937
0.0679016
0.0628662
0.0570679
0.0509644
0.0450134
0.0386047
0.0315857
0.0244141
0.0175476
0.0100708
0.00244141
-0.00534058
-0.0128174
-0.0201416
-0.0279236
-0.0346375
-0.0413513
-0.0479126
-0.0538635
-0.0595093
-0.0643921
-0.0686646
-0.0720215
-0.0749207
-0.0772095
-0.0784302
-0.0794983
-0.0798035
-0.0801086
-0.0801086
-0.0801086
-0.0798035
-0.0793457
-0.0788879
-0.0784302
-0.0782776
-0.0773621
-0.0772095
-0.0765991
-0.0759888
-0.0753784
-0.0747681
-0.0738525
-0.072937
-0.0718689
-0.0714111
-0.070343
-0.0692749
-0.068512
-0.067749
-0.0671387
-0.0668335
-0.0662231
-0.0663757
-0.0657654
-0.0656128
-0.065918
-0.0656128
-0.0656128
-0.0656128
-0.0657654
-0.0650024
-0.0639343
-0.0631714
-0.0624084
-0.0610352
-0.06073
-0.0590515
-0.058136
-0.0563049
-0.0552368
-0.0544739
-0.0535583
-0.0524902
-0.0520325
-0.0511169
-0.050354
-0.0500488
-0.0495911
-0.0489807
-0.0483704
-0.0479126
-0.0476074
-0.0474548
-0.0476074
-0.0480652
-0.0488281
-0.0495911
-0.0506592
-0.0521851
-0.0540161
-0.0559998
-0.058136
-0.0601196
-0.0617981
-0.0630188
-0.0631714
-0.0624084
-0.0605774
-0.0567627
-0.0502014
-0.0413513
-0.0297546
-0.0140381
0.0050354
0.0280762
0.0550842
0.0869751
0.122681
0.162201
0.205688
0.252686
0.303192
0.357056
0.413818
0.472565
0.533905
0.596008
0.657196
0.716858
0.773163
0.823975
0.868988
0.90744
0.937347
0.959625
0.972443
0.975494
0.968018
0.94986
0.920563
0.880432
0.829926
0.770416
0.702515
0.628204
0.548553
0.465088
0.379333
0.292816
0.206757
0.122681
0.0419617
-0.0334167
-0.102844
-0.166016
-0.220642
-0.267334
-0.304413
-0.333405
-0.353394
-0.364838
-0.369415
-0.366516
-0.357208
-0.34317
-0.324249
-0.303345
-0.279694
-0.254517
-0.229187
-0.203857
-0.179291
-0.155945
-0.134125
-0.114594
-0.0971985
-0.0819397
-0.0692749
-0.0595093
-0.0515747
-0.0471497
-0.0439453
-0.043335
-0.0439453
-0.045929
-0.0494385
-0.0535583
-0.058136
-0.0630188
-0.0675964
-0.0727844
-0.0772095
-0.0808716
-0.0843811
-0.0866699
-0.0888062
-0.0901794
-0.0909424
-0.0912476
-0.0907898
-0.0904846
-0.0895691
-0.0888062
-0.0881958
-0.0865173
-0.0852966
-0.0840759
-0.0830078
-0.0817871
-0.0804138
-0.0793457
-0.0782776
-0.0765991
-0.0753784
-0.0738525
-0.0724792
-0.0715637
-0.0701904
-0.0692749
-0.0683594
-0.0679016
-0.0675964
-0.0672913
-0.0669861
-0.0668335
-0.0666809
-0.065918
-0.065918
-0.0656128
-0.065155
-0.0650024
-0.0640869
-0.0637817
-0.0627136
-0.0617981
-0.06073
-0.0596619
-0.0578308
-0.0566101
-0.055542
-0.0544739
-0.0535583
-0.052948
-0.0521851
-0.0512695
-0.0508118
-0.0500488
-0.0494385
-0.0488281
-0.04776
-0.0465393
-0.0453186
-0.0445557
-0.0430298
-0.0419617
-0.0405884
-0.0393677
-0.0376892
-0.0361633
-0.0352478
-0.0346375
-0.0337219
-0.032959
-0.0325012
-0.0317383
-0.0311279
-0.0305176
-0.0299072
-0.0294495
-0.0288391
-0.0280762
-0.0273132
-0.0263977
-0.0254822
-0.0248718
-0.0236511
-0.0227356
-0.0213623
-0.020752
-0.0193787
-0.0189209
-0.018158
-0.0175476
-0.0167847
-0.0163269
-0.0160217
-0.015564
-0.0149536
-0.0143433
-0.0138855
-0.0132751
-0.0120544
-0.0114441
-0.0106812
-0.00961304
-0.00839233
-0.00671387
-0.00579834
-0.00427246
-0.00320435
-0.00198364
-0.00152588
-0.00106812
-0.000305176
0.000610352
0.00106812
0.00167847
0.00213623
0.00259399
0.00335693
0.00411987
0.00518799
0.00610352
0.00747681
0.00854492
0.00976562
0.0112915
0.0126648
0.0141907
0.0154114
0.0166321
0.0175476
0.0184631
0.0196838
0.0209045
0.0222778
0.0228882
0.0238037
0.0248718
0.0259399
0.0268555
0.0283813
0.0296021
0.0309753
0.0328064
0.0343323
0.0363159
0.0378418
0.0395203
0.0411987
0.042572
0.0440979
0.0453186
0.0466919
0.0482178
0.0494385
0.0508118
0.0521851
0.0537109
0.0549316
0.0567627
0.058136
0.0604248
0.0622559
0.0643921
0.0663757
0.0686646
0.0708008
0.0732422
0.0752258
0.0772095
0.0790405
0.0810242
0.0822449
0.0843811
0.0863647
0.087738
0.0894165
0.0909424
0.0930786
0.0949097
0.0973511
0.0996399
0.101929
0.104675
0.107574
0.110016
0.11261
0.115662
0.118103
0.120697
0.122681
0.125275
0.127106
0.129395
0.131226
0.133362
0.135193
0.137177
0.139313
0.140991
0.143433
0.145874
0.148163
0.150757
0.15274
0.155182
0.157013
0.158844
0.16098
0.162506
0.163727
0.165253
0.166626
0.167389
0.169067
0.169525
0.170288
0.171356
0.172272
0.173035
0.173798
0.174866
0.175934
0.176697
0.177765
0.178833
0.179749
0.180359
0.180969
0.181274
0.181732
0.181427
0.18158
0.181427
0.180969
0.180359
0.179749
0.178528
0.177765
0.176849
0.176239
0.175171
0.17395
0.173035
0.172272
0.170593
0.169525
0.167694
0.166321
0.164032
0.161743
0.159149
0.15625
0.153503
0.150604
0.147247
0.143738
0.139923
0.136414
0.132751
0.128937
0.125122
0.121002
0.117035
0.112915
0.10849
0.104065
0.0993347
0.0949097
0.0895691
0.0843811
0.0788879
0.0737
0.0679016
0.062561
0.0566101
0.0511169
0.0453186
0.039978
0.0349426
0.0294495
0.0250244
0.0196838
0.0151062
0.0106812
0.0062561
0.00244141
-0.00198364
-0.0062561
-0.010376
-0.0146484
-0.0192261
-0.0236511
-0.0280762
-0.0326538
-0.0367737
-0.0413513
-0.0457764
-0.0495911
-0.0537109
-0.0570679
-0.0604248
-0.0637817
-0.0669861
-0.0700378
-0.0727844
-0.0756836
-0.0782776
-0.0810242
-0.083313
-0.0862122
-0.0889587
-0.0914001
-0.0938416
-0.0961304
-0.0982666
-0.100555
-0.102539
-0.104523
-0.105591
-0.107574
-0.10849
-0.109558
-0.110474
-0.111237
-0.111542
-0.112457
-0.112762
-0.113373
-0.113983
-0.114594
-0.115204
-0.115509
-0.115967
-0.116577
-0.117035
-0.117645
-0.117493
-0.117798
-0.117798
-0.116882
-0.116577
-0.115967
-0.115509
-0.114288
-0.113068
-0.112305
-0.110931
-0.110168
-0.1091
-0.10788
-0.106964
-0.106201
-0.105286
-0.10437
-0.103455
-0.102539
-0.101318
-0.100708
-0.0994873
-0.098114
-0.0964355
-0.0953674
-0.0939941
-0.0920105
-0.090332
-0.0888062
-0.0869751
-0.0860596
-0.0846863
-0.0840759
-0.0828552
-0.0822449
-0.0811768
-0.080719
-0.0802612
-0.0793457
-0.0791931
-0.0787354
-0.0782776
-0.0772095
-0.0761414
-0.0750732
-0.0738525
-0.0726318
-0.0712585
-0.070343
-0.0686646
-0.0674438
-0.0665283
-0.0656128
-0.0648499
-0.0639343
-0.0631714
-0.0628662
-0.0621033
-0.0619507
-0.0616455
-0.0613403
-0.0602722
-0.0596619
-0.0595093
-0.058136
-0.0576782
-0.0566101
-0.0556946
-0.0550842
-0.0541687
-0.0532532
-0.0526428
-0.0524902
-0.0523376
-0.0520325
-0.0515747
-0.0518799
-0.0515747
-0.0512695
-0.0511169
-0.0508118
-0.0497437
-0.0498962
-0.0489807
-0.0483704
-0.0474548
-0.0469971
-0.0463867
-0.0454712
-0.0447083
-0.0442505
-0.0439453
-0.0437927
-0.0440979
-0.043335
-0.0436401
-0.0440979
-0.0444031
-0.0447083
-0.0447083
-0.0447083
-0.045166
-0.0448608
-0.0447083
-0.0445557
-0.0439453
-0.0431824
-0.0430298
-0.0424194
-0.0422668
-0.0422668
-0.0419617
-0.0422668
-0.0424194
-0.0431824
-0.0431824
-0.0434875
-0.0448608
-0.0450134
-0.045929
-0.0466919
-0.0474548
-0.0482178
-0.0485229
-0.0492859
-0.0494385
-0.0498962
-0.050354
-0.0511169
-0.0509644
-0.0518799
-0.0524902
-0.0531006
-0.0540161
-0.0543213
-0.0549316
-0.055542
-0.0566101
-0.0572205
-0.0570679
-0.0576782
-0.058136
-0.0584412
-0.0584412
-0.0579834
-0.058136
-0.0584412
-0.058136
-0.057373
-0.0578308
-0.0578308
-0.0578308
-0.0578308
-0.0579834
-0.0579834
-0.0585938
-0.0588989
-0.0587463
-0.0592041
-0.0596619
-0.059967
-0.0601196
-0.0601196
-0.059967
-0.0595093
-0.0593567
-0.0596619
-0.0593567
-0.0588989
-0.0585938
-0.0584412
-0.0584412
-0.0584412
-0.0584412
-0.0588989
-0.0588989
-0.0598145
-0.059967
-0.0604248
-0.0602722
-0.06073
-0.0604248
-0.0605774
-0.0604248
-0.0601196
-0.0598145
-0.0598145
-0.0593567
-0.0590515
-0.0588989
-0.0587463
-0.0592041
-0.0596619
-0.0598145
-0.0602722
-0.06073
-0.0614929
-0.0621033
-0.0631714
-0.0637817
-0.0640869
-0.0645447
-0.0645447
-0.0646973
-0.0643921
-0.0640869
-0.0636292
-0.0631714
-0.062561
-0.0621033
-0.0614929
-0.0613403
-0.0613403
-0.0616455
-0.0616455
-0.0621033
-0.0622559
-0.0627136
-0.0628662
-0.0631714
-0.063324
-0.063324
-0.0636292
-0.0628662
-0.062561
-0.0624084
-0.0624084
-0.0613403
-0.0608826
-0.059967
-0.0595093
-0.0592041
-0.0585938
-0.0582886
-0.0585938
-0.0582886
-0.058136
-0.0584412
-0.0585938
-0.0585938
-0.0590515
-0.0592041
-0.0592041
-0.0590515
-0.0592041
-0.0585938
-0.0590515
-0.0585938
-0.0578308
-0.0578308
-0.0575256
-0.0576782
-0.057373
-0.0576782
-0.0575256
-0.0570679
-0.0575256
-0.057373
-0.0575256
-0.0576782
-0.0575256
-0.0570679
-0.0569153
-0.0566101
-0.0553894
-0.0549316
-0.0541687
-0.0534058
-0.0526428
-0.0518799
-0.0518799
-0.0512695
-0.0511169
-0.0509644
-0.0509644
-0.0506592
-0.0505066
-0.0508118
-0.0508118
-0.0505066
-0.0500488
-0.0497437
-0.0488281
-0.0482178
-0.0476074
-0.0469971
-0.0457764
-0.0450134
-0.0442505
-0.0434875
-0.0434875
-0.0430298
-0.0428772
-0.0431824
-0.0431824
-0.0431824
-0.0430298
-0.0436401
-0.0439453
-0.0439453
-0.0444031
-0.0442505
-0.0444031
-0.0444031
-0.0439453
-0.0439453
-0.0434875
-0.0427246
-0.0424194
-0.0416565
-0.0405884
-0.0402832
-0.0396729
-0.0395203
-0.0386047
-0.0384521
-0.0382996
-0.0378418
-0.0376892
-0.0369263
-0.0366211
-0.0360107
-0.0354004
-0.03479
-0.0343323
-0.0335693
-0.0332642
-0.0328064
-0.0328064
-0.0326538
-0.0325012
-0.0334167
-0.0334167
-0.03479
-0.0354004
-0.0363159
-0.0379944
-0.0387573
-0.039978
-0.0408936
-0.0415039
-0.0419617
-0.0421143
-0.0422668
-0.0424194
-0.0419617
-0.0410461
-0.0405884
-0.0395203
-0.0382996
-0.037384
-0.0363159
-0.0360107
-0.0354004
-0.0346375
-0.0337219
-0.0334167
-0.032959
-0.032959
-0.0323486
-0.0323486
-0.0318909
-0.0318909
-0.0309753
-0.0306702
-0.0305176
-0.0300598
-0.0297546
-0.0296021
-0.0292969
-0.0294495
-0.0292969
-0.0296021
-0.0294495
-0.0299072
-0.0297546
-0.0297546
-0.0300598
-0.0300598
-0.0299072
-0.0297546
-0.0292969
-0.0289917
-0.0282288
-0.0280762
-0.0270081
-0.0257874
-0.0247192
-0.0242615
-0.0233459
-0.0228882
-0.0224304
-0.0222778
-0.0222778
-0.0219727
-0.0219727
-0.0218201
-0.0218201
-0.0222778
-0.0222778
-0.0224304
-0.0218201
-0.0213623
-0.0209045
-0.0205994
-0.0202942
-0.0195312
-0.0189209
-0.0186157
-0.0178528
-0.0178528
-0.0178528
-0.0175476
-0.0184631
-0.0184631
-0.0190735
-0.0192261
-0.019989
-0.020752
-0.0212097
-0.0213623
-0.0215149
-0.0218201
-0.0218201
-0.0219727
-0.0219727
-0.0222778
-0.0222778
-0.0224304
-0.0218201
-0.0219727
-0.0222778
-0.022583
-0.0222778
-0.0224304
-0.0224304
-0.0228882
-0.0228882
-0.0233459
-0.0236511
-0.0233459
-0.0233459
-0.0230408
-0.0222778
-0.0224304
-0.0213623
-0.020752
-0.019989
-0.0195312
-0.0187683
-0.018158
-0.0178528
-0.0170898
-0.0169373
-0.0164795
-0.0161743
-0.0158691
-0.0157166
-0.015564
-0.0151062
-0.014801
-0.014801
-0.0141907
-0.0132751
-0.01297
-0.0125122
-0.0120544
-0.0114441
-0.0109863
-0.0105286
-0.0100708
-0.0100708
-0.0100708
-0.0102234
-0.010376
-0.0105286
-0.0111389
-0.0114441
-0.012207
-0.0126648
-0.0128174
-0.01297
-0.01297
-0.0131226
-0.0126648
-0.012207
-0.0117493
-0.0112915
-0.0102234
-0.00961304
-0.00854492
-0.00762939
-0.00701904
-0.00579834
-0.00411987
-0.00228882
-0.000152588
0.00213623
0.00427246
0.00778198
0.0109863
0.0144958
0.0186157
0.0231934
0.0276184
0.0323486
0.0367737
0.0411987
0.0460815
0.050354
0.0544739
0.0582886
0.0616455
0.0656128
0.067749
0.070343
0.0724792
0.0741577
0.0756836
0.0772095
0.0788879
0.0799561
0.0816345
0.0830078
0.0840759
0.0856018
0.0868225
0.0883484
0.0898743
0.0915527
0.0932312
0.0946045
0.0956726
0.0967407
0.0978088
0.098877
0.10025
0.101166
0.102234
0.10376
0.104523
0.105591
0.106506
0.107269
0.107422
0.10788
0.107574
0.107727
0.107117
0.106354
0.104828
0.102692
0.10025
0.0965881
0.0926208
0.0881958
0.0822449
0.0764465
0.0695801
0.0624084
0.0543213
0.0466919
0.0387573
0.0302124
0.0219727
0.0135803
0.00564575
-0.00244141
-0.00991821
-0.0178528
-0.0250244
-0.0318909
-0.0379944
-0.0440979
-0.0497437
-0.0547791
-0.0584412
-0.0617981
-0.0646973
-0.0665283
-0.067749
-0.068512
-0.0680542
-0.0680542
-0.0674438
-0.0665283
-0.0654602
-0.0637817
-0.062561
-0.0608826
-0.0588989
-0.0579834
-0.0567627
-0.0559998
-0.0553894
-0.0547791
-0.0538635
-0.0534058
-0.0531006
-0.0527954
-0.0518799
-0.0517273
-0.0508118
-0.0498962
-0.0488281
-0.0479126
-0.0468445
-0.0457764
-0.0442505
-0.0437927
-0.0428772
-0.042572
-0.0421143
-0.0421143
-0.042572
-0.0430298
-0.0431824
-0.0434875
-0.0440979
-0.0448608
-0.045166
-0.0460815
-0.0463867
-0.0473022
-0.0473022
-0.04776
-0.04776
-0.0474548
-0.0476074
-0.0479126
-0.0469971
-0.0473022
-0.0465393
-0.0460815
-0.0454712
-0.0447083
-0.0444031
-0.0437927
-0.0439453
-0.0437927
-0.0445557
-0.0445557
-0.0456238
-0.0468445
-0.0476074
-0.0492859
-0.0506592
-0.0520325
-0.0531006
-0.0537109
-0.0537109
-0.0532532
-0.0511169
-0.0471497
-0.0408936
-0.0326538
-0.0212097
-0.00579834
0.012207
0.03479
0.0610352
0.0915527
0.125885
0.164948
0.207214
0.253296
0.302734
0.35553
0.411072
0.469055
0.528717
0.589142
0.648651
0.706329
0.76004
0.809326
0.852051
0.887604
0.915833
0.935974
0.947418
0.949707
0.942383
0.924988
0.897827
0.860748
0.814667
0.760193
0.698853
0.630646
0.557251
0.480347
0.401001
0.319977
0.240173
0.161591
0.0857544
0.0143433
-0.0526428
-0.113678
-0.167694
-0.214233
-0.253296
-0.284729
-0.308075
-0.324402
-0.333557
-0.336761
-0.333557
-0.326385
-0.315094
-0.301056
-0.284119
-0.265808
-0.245972
-0.22583
-0.205383
-0.185394
-0.165863
-0.147705
-0.130463
-0.114594
-0.0996399
-0.0863647
-0.0753784
-0.0653076
-0.0570679
-0.0500488
-0.0448608
-0.0416565
-0.0393677
-0.0386047
-0.0389099
-0.0398254
-0.0411987
-0.0439453
-0.0465393
-0.0497437
-0.0531006
-0.0563049
-0.0596619
-0.0624084
-0.0646973
-0.0666809
-0.067749
-0.0689697
-0.0694275
-0.0688171
-0.0688171
-0.067749
-0.0668335
-0.0656128
-0.0646973
-0.0637817
-0.0622559
-0.0611877
-0.0604248
-0.0592041
-0.0584412
-0.0576782
-0.0566101
-0.0561523
-0.0550842
-0.0543213
-0.0534058
-0.0526428
-0.0520325
-0.0511169
-0.0506592
-0.0505066
-0.0500488
-0.0500488
-0.0500488
-0.0498962
-0.0498962
-0.0494385
-0.0495911
-0.0488281
-0.0485229
-0.04776
-0.0466919
-0.0453186
-0.0436401
-0.0416565
-0.0398254
-0.0378418
-0.035553
-0.0334167
-0.0312805
-0.0291443
-0.027771
-0.0268555
-0.0257874
-0.0250244
-0.0244141
-0.0239563
-0.0238037
-0.0236511
-0.0241089
-0.0239563
-0.0244141
-0.0247192
-0.0247192
-0.0248718
-0.0248718
-0.025177
-0.0250244
-0.025177
-0.0250244
-0.0245667
-0.0245667
-0.0236511
-0.0238037
-0.0231934
-0.0227356
-0.0221252
-0.0213623
-0.0205994
-0.019989
-0.0193787
-0.0184631
-0.0177002
-0.0161743
-0.0143433
-0.01297
-0.0111389
-0.00915527
-0.00686646
-0.00534058
-0.00335693
-0.00152588
0.0
0.00152588
0.00289917
0.00427246
0.00549316
0.00656128
0.00747681
0.00823975
0.00915527
0.00976562
0.0108337
0.012207
0.0123596
0.0132751
0.0146484
0.0154114
0.0164795
0.0170898
0.0183105
0.0189209
0.0192261
0.0196838
0.0196838
0.019989
0.0204468
0.0212097
0.0215149
0.0224304
0.0231934
0.0242615
0.0256348
0.0273132
0.0291443
0.0311279
0.032959
0.035553
0.0378418
0.039978
0.0419617
0.0442505
0.0457764
0.0471497
0.0485229
0.0498962
0.0505066
0.0514221
0.0517273
0.0521851
0.0526428
0.0534058
0.0543213
0.0550842
0.0561523
0.057373
0.0582886
0.0590515
0.0604248
0.0619507
0.0631714
0.0642395
0.0653076
0.0666809
0.0683594
0.0698853
0.0717163
0.0737
0.0759888
0.078125
0.0801086
0.0823975
0.0849915
0.0874329
0.0897217
0.0920105
0.0939941
0.0961304
0.0987244
0.100708
0.102081
0.104218
0.105896
0.107117
0.108337
0.109558
0.110016
0.110779
0.111542
0.111847
0.112305
0.113373
0.114136
0.115356
0.116882
0.118713
0.121307
0.123749
0.126495
0.129547
0.132141
0.134735
0.137024
0.13916
0.141296
0.143585
0.145721
0.148315
0.150299
0.15213
0.153503
0.155334
0.156555
0.158234
0.159454
0.16098
0.162048
0.162811
0.164032
0.16449
0.165253
0.165253
0.16571
0.165863
0.166016
0.166321
0.166779
0.166931
0.167542
0.168152
0.168762
0.169373
0.170746
0.171509
0.172729
0.173645
0.174408
0.175629
0.176239
0.177002
0.177917
0.177765
0.178223
0.17746
0.17746
0.176544
0.175781
0.174103
0.172424
0.169983
0.168457
0.166473
0.164185
0.162201
0.160217
0.158539
0.156708
0.155334
0.153503
0.151367
0.149231
0.1474
0.144501
0.142365
0.139618
0.136719
0.133667
0.130463
0.126343
0.123138
0.119019
0.114899
0.111237
0.107422
0.103302
0.0993347
0.0958252
0.0918579
0.0883484
0.0842285
0.0794983
0.075531
0.0706482
0.065918
0.0611877
0.0564575
0.0515747
0.0468445
0.0422668
0.0376892
0.0331116
0.0288391
0.0247192
0.0205994
0.0167847
0.0126648
0.00900269
0.00534058
0.00183105
-0.00167847
-0.00488281
-0.0088501
-0.0123596
-0.0160217
-0.019989
-0.0238037
-0.0279236
-0.0317383
-0.0361633
-0.0404358
-0.0447083
-0.0492859
-0.0538635
-0.0579834
-0.0619507
-0.0657654
-0.0697327
-0.072937
-0.0761414
-0.0788879
-0.0817871
-0.0845337
-0.0872803
-0.0900269
-0.0920105
-0.0946045
-0.0965881
-0.0984192
-0.100098
-0.101166
-0.102386
-0.103607
-0.10437
-0.104828
-0.105438
-0.105743
-0.106201
-0.106506
-0.106659
-0.106812
-0.107422
-0.108185
-0.108948
-0.109253
-0.110016
-0.110626
-0.110779
-0.111084
-0.110931
-0.111084
-0.110931
-0.110626
-0.110016
-0.1091
-0.108185
-0.107117
-0.106049
-0.105133
-0.103912
-0.102692
-0.102081
-0.101471
-0.101318
-0.100861
-0.100861
-0.100555
-0.100861
-0.100708
-0.101013
-0.100708
-0.100098
-0.0993347
-0.098114
-0.0967407
-0.0950623
-0.0933838
-0.0912476
-0.0895691
-0.0872803
-0.0852966
-0.0834656
-0.0816345
-0.0804138
-0.0790405
-0.0782776
-0.0779724
-0.0778198
-0.0778198
-0.078125
-0.0782776
-0.0787354
-0.0794983
-0.0796509
-0.0810242
-0.0813293
-0.0819397
-0.0823975
-0.0830078
-0.0831604
-0.083313
-0.083313
-0.083313
-0.0831604
-0.0830078
-0.0830078
-0.08255
-0.0820923
-0.0816345
-0.0813293
-0.0804138
-0.0793457
-0.0785828
-0.0773621
-0.0761414
-0.0746155
-0.072937
-0.0715637
-0.0695801
-0.0680542
-0.0665283
-0.0653076
-0.0643921
-0.0631714
-0.0627136
-0.0621033
-0.0610352
-0.0608826
-0.0605774
-0.0602722
-0.0605774
-0.06073
-0.06073
-0.06073
-0.0610352
-0.0605774
-0.0605774
-0.0604248
-0.0602722
-0.059967
-0.059967
-0.0593567
-0.0592041
-0.0585938
-0.0588989
-0.0585938
-0.0585938
-0.058136
-0.0585938
-0.058136
-0.0578308
-0.0575256
-0.0576782
-0.0566101
-0.0559998
-0.0550842
-0.0544739
-0.0534058
-0.0531006
-0.0521851
-0.0518799
-0.0517273
-0.0517273
-0.0518799
-0.0521851
-0.0521851
-0.0527954
-0.0531006
-0.0535583
-0.0537109
-0.0549316
-0.0556946
-0.0559998
-0.0567627
-0.0572205
-0.0575256
-0.0575256
-0.0575256
-0.0578308
-0.0578308
-0.0576782
-0.0578308
-0.0578308
-0.0579834
-0.0584412
-0.0585938
-0.0590515
-0.0598145
-0.0595093
-0.0604248
-0.0605774
-0.06073
-0.0610352
-0.0610352
-0.0608826
-0.0604248
-0.059967
-0.0593567
-0.0588989
-0.0582886
-0.0579834
-0.057373
-0.0564575
-0.0564575
-0.0564575
-0.0561523
-0.0556946
-0.0550842
-0.0549316
-0.0546265
-0.0544739
-0.0537109
-0.0535583
-0.0532532
-0.0526428
-0.0523376
-0.0520325
-0.0512695
-0.0506592
-0.0508118
-0.050354
-0.0506592
-0.0508118
-0.0512695
-0.0521851
-0.0527954
-0.0540161
-0.0544739
-0.055542
-0.0570679
-0.058136
-0.0595093
-0.0602722
-0.0610352
-0.0617981
-0.0617981
-0.0622559
-0.0621033
-0.0619507
-0.0608826
-0.0601196
-0.0592041
-0.0585938
-0.0578308
-0.0572205
-0.0561523
-0.0558472
-0.0552368
-0.0546265
-0.0541687
-0.0535583
-0.0531006
-0.0527954
-0.0520325
-0.0512695
-0.0505066
-0.0502014
-0.0495911
-0.0491333
-0.0483704
-0.0480652
-0.0479126
-0.04776
-0.0483704
-0.0483704
-0.0492859
-0.0500488
-0.050354
-0.0517273
-0.0527954
-0.0535583
-0.0544739
-0.0550842
-0.0563049
-0.0563049
-0.0559998
-0.0563049
-0.0561523
-0.0558472
-0.0556946
-0.0549316
-0.0546265
-0.0543213
-0.0541687
-0.0540161
-0.0540161
-0.0538635
-0.0534058
-0.0531006
-0.0531006
-0.0526428
-0.0524902
-0.0520325
-0.0517273
-0.0514221
-0.0508118
-0.0498962
-0.0494385
-0.0488281
-0.04776
-0.0473022
-0.0460815
-0.0462341
-0.0456238
-0.045929
-0.0457764
-0.0457764
-0.0457764
-0.0462341
-0.0462341
-0.0468445
-0.0465393
-0.0468445
-0.0468445
-0.0468445
-0.0468445
-0.0466919
-0.0465393
-0.0460815
-0.0453186
-0.0448608
-0.0442505
-0.0434875
-0.043335
-0.0427246
-0.0419617
-0.0419617
-0.0408936
-0.040741
-0.0405884
-0.0404358
-0.039978
-0.0390625
-0.0387573
-0.0375366
-0.0367737
-0.0361633
-0.035553
-0.03479
-0.0338745
-0.0340271
-0.0337219
-0.0338745
-0.0343323
-0.0350952
-0.0357056
-0.0363159
-0.037384
-0.038147
-0.0392151
-0.039978
-0.0411987
-0.0422668
-0.0430298
-0.043335
-0.0437927
-0.0434875
-0.0436401
-0.043335
-0.0428772
-0.0419617
-0.0408936
-0.039978
-0.0382996
-0.0369263
-0.0349426
-0.032196
-0.0300598
-0.0276184
-0.0244141
-0.0216675
-0.0178528
-0.0140381
-0.00961304
-0.00534058
0.0
0.00442505
0.00976562
0.0143433
0.0192261
0.0239563
0.0283813
0.0325012
0.0364685
0.0398254
0.042572
0.0453186
0.04776
0.0495911
0.0509644
0.052948
0.0541687
0.0556946
0.0572205
0.0587463
0.0604248
0.0617981
0.0637817
0.0646973
0.0660706
0.0675964
0.0691223
0.070343
0.0715637
0.072937
0.0743103
0.0752258
0.0762939
0.0770569
0.078125
0.0785828
0.0794983
0.0804138
0.0808716
0.080719
0.0813293
0.0811768
0.0816345
0.0811768
0.080719
0.0794983
0.0779724
0.0762939
0.0735474
0.0701904
0.0663757
0.0621033
0.0570679
0.0514221
0.0454712
0.0389099
0.0317383
0.0245667
0.0170898
0.00915527
0.0012207
-0.0062561
-0.0141907
-0.0219727
-0.0285339
-0.0358582
-0.0428772
-0.0494385
-0.0556946
-0.0613403
-0.0666809
-0.0712585
-0.0750732
-0.0785828
-0.0819397
-0.0840759
-0.0852966
-0.0868225
-0.0871277
-0.0866699
-0.0868225
-0.0857544
-0.0845337
-0.0831604
-0.0816345
-0.0804138
-0.0787354
-0.0778198
-0.0770569
-0.0762939
-0.0761414
-0.0759888
-0.0752258
-0.0753784
-0.075531
-0.0752258
-0.0753784
-0.0758362
-0.075531
-0.0752258
-0.0749207
-0.0744629
-0.0743103
-0.0735474
-0.0730896
-0.0723267
-0.0718689
-0.0715637
-0.0708008
-0.070343
-0.0697327
-0.0692749
-0.0688171
-0.0686646
-0.0674438
-0.0668335
-0.0662231
-0.065155
-0.0637817
-0.0630188
-0.0616455
-0.0601196
-0.0585938
-0.0570679
-0.0556946
-0.0543213
-0.0526428
-0.0518799
-0.0514221
-0.0508118
-0.0506592
-0.0502014
-0.0495911
-0.0500488
-0.0505066
-0.0511169
-0.0518799
-0.0532532
-0.0544739
-0.0559998
-0.058136
-0.0604248
-0.0628662
-0.065155
-0.0675964
-0.0695801
-0.0720215
-0.0735474
-0.0747681
-0.0744629
-0.0735474
-0.0697327
-0.0645447
-0.0566101
-0.0463867
-0.0323486
-0.0149536
0.00640869
0.032196
0.0611877
0.0946045
0.132141
0.173035
0.217285
0.265503
0.316925
0.370483
0.427704
0.486603
0.546722
0.606842
0.665283
0.72113
0.772858
0.818024
0.856781
0.888824
0.913086
0.929413
0.936737
0.935211
0.923767
0.902252
0.871429
0.830688
0.78125
0.723724
0.65918
0.588379
0.513306
0.435333
0.355225
0.274963
0.195465
0.117645
0.0431824
-0.0262451
-0.0906372
-0.148621
-0.19989
-0.243835
-0.279846
-0.308838
-0.32959
-0.343781
-0.3508
-0.352173
-0.348511
-0.340271
-0.328217
-0.31311
-0.296021
-0.276794
-0.257111
-0.236816
-0.216522
-0.196228
-0.177002
-0.158234
-0.140839
-0.124969
-0.110168
-0.0975037
-0.085907
-0.0767517
-0.0686646
-0.063324
-0.0585938
-0.0563049
-0.0552368
-0.055542
-0.0570679
-0.0590515
-0.0616455
-0.0653076
-0.0691223
-0.0723267
-0.0758362
-0.0787354
-0.0819397
-0.0842285
-0.0856018
-0.0869751
-0.0881958
-0.0888062
-0.0891113
-0.0886536
-0.0878906
-0.0874329
-0.0865173
-0.085907
-0.0848389
-0.0839233
-0.0827026
-0.0817871
-0.0808716
-0.0801086
-0.0793457
-0.0782776
-0.0772095
-0.0761414
-0.0750732
-0.0743103
-0.0732422
-0.0723267
-0.0712585
-0.0704956
-0.0700378
-0.0695801
-0.0691223
-0.0689697
-0.0686646
-0.0680542
-0.0679016
-0.0679016
-0.0674438
-0.0671387
-0.0668335
-0.0662231
-0.0653076
-0.0642395
-0.0634766
-0.0624084
-0.0608826
-0.0596619
-0.0582886
-0.0572205
-0.0559998
-0.0550842
-0.0543213
-0.0534058
-0.0526428
-0.0518799
-0.0508118
-0.050354
-0.0497437
-0.0492859
-0.0485229
-0.0476074
-0.0468445
-0.045929
-0.0448608
-0.0440979
-0.0430298
-0.0424194
-0.0413513
-0.0405884
-0.039978
-0.0390625
-0.0387573
-0.0386047
-0.038147
-0.0372314
-0.0370789
-0.0364685
-0.0357056
-0.0350952
-0.0340271
-0.0331116
-0.0320435
-0.0305176
-0.0296021
-0.0279236
-0.0263977
-0.0247192
-0.0236511
-0.0215149
-0.0205994
-0.0201416
-0.0190735
-0.0183105
-0.0178528
-0.0167847
-0.0166321
-0.0164795
-0.0158691
-0.015564
-0.0144958
-0.0144958
-0.0134277
-0.0125122
-0.0117493
-0.010376
-0.0088501
-0.00778198
-0.00671387
-0.00549316
-0.00473022
-0.00366211
-0.00274658
-0.00183105
-0.000915527
-0.000305176
0.000457764
0.00106812
0.00137329
0.00259399
0.00366211
0.00488281
0.00579834
0.00717163
0.00839233
0.0102234
0.0117493
0.0134277
0.0154114
0.0166321
0.018158
0.0192261
0.0205994
0.0216675
0.0230408
0.0239563
0.0248718
0.0257874
0.0265503
0.0276184
0.0286865
0.0299072
0.0309753
0.0320435
0.0334167
0.0350952
0.0363159
0.0384521
0.0396729
0.040741
0.0421143
0.043335
0.0444031
0.045929
0.0474548
0.0485229
0.0498962
0.0514221
0.052948
0.0546265
0.0563049
0.058136
0.059967
0.0621033
0.0643921
0.0665283
0.0689697
0.0714111
0.0733948
0.0759888
0.0779724
0.0793457
0.0808716
0.0823975
0.0842285
0.0856018
0.0866699
0.0880432
0.0894165
0.091095
0.092926
0.0944519
0.0961304
0.098877
0.101166
0.10376
0.106354
0.108948
0.111084
0.113831
0.116272
0.118408
0.120392
0.122375
0.124207
0.12619
0.127869
0.129547
0.131073
0.132904
0.134277
0.136261
0.138245
0.139923
0.141296
0.142822
0.144653
0.146332
0.147705
0.148926
0.149841
0.150604
0.15152
0.152435
0.15274
0.153503
0.153656
0.153809
0.153961
0.154572
0.154724
0.154724
0.155029
0.155487
0.15564
0.155792
0.156403
0.156708
0.156403
0.156403
0.156097
0.155182
0.155182
0.153961
0.153198
0.15152
0.150299
0.148315
0.147095
0.145416
0.143738
0.141602
0.140076
0.137939
0.136414
0.133972
0.132446
0.13031
0.127563
0.125275
0.122528
0.119629
0.116119
0.11322
0.109406
0.106049
0.101929
0.0982666
0.0942993
0.0900269
0.0862122
0.0822449
0.0782776
0.0744629
0.0704956
0.0663757
0.0627136
0.0587463
0.0541687
0.0505066
0.0453186
0.0408936
0.0366211
0.0312805
0.0265503
0.0216675
0.0167847
0.0119019
0.00717163
0.00259399
-0.00183105
-0.00595093
-0.00976562
-0.0132751
-0.0164795
-0.0202942
-0.0239563
-0.0265503
-0.0297546
-0.032959
-0.0361633
-0.039978
-0.0431824
-0.0468445
-0.0502014
-0.0534058
-0.0572205
-0.0613403
-0.0645447
-0.0683594
-0.0715637
-0.0750732
-0.078125
-0.0813293
-0.0842285
-0.0872803
-0.0900269
-0.0921631
-0.0944519
-0.0970459
-0.0994873
-0.101318
-0.103607
-0.106049
-0.107574
-0.109253
-0.111084
-0.112762
-0.113831
-0.114594
-0.115204
-0.115662
-0.115814
-0.115814
-0.115662
-0.115814
-0.115356
-0.115356
-0.114594
-0.114746
-0.114441
-0.114441
-0.114441
-0.114136
-0.114288
-0.114594
-0.114746
-0.114899
-0.114594
-0.114746
-0.114746
-0.114441
-0.114136
-0.113068
-0.112
-0.110626
-0.109711
-0.108032
-0.106659
-0.105286
-0.10376
-0.102539
-0.101624
-0.100403
-0.0993347
-0.0985718
-0.0971985
-0.096283
-0.0952148
-0.0942993
-0.0930786
-0.0921631
-0.0906372
-0.0892639
-0.0881958
-0.0871277
-0.0856018
-0.0842285
-0.0828552
-0.0816345
-0.0804138
-0.0798035
-0.0787354
-0.0776672
-0.0772095
-0.0764465
-0.0756836
-0.0750732
-0.0746155
-0.0737
-0.0733948
-0.0721741
-0.0715637
-0.070343
-0.0697327
-0.0688171
-0.0672913
-0.0663757
-0.0653076
-0.0645447
-0.0640869
-0.0637817
-0.0628662
-0.0628662
-0.0630188
-0.0624084
-0.0627136
-0.0627136
-0.0621033
-0.0621033
-0.0616455
-0.0610352
-0.06073
-0.0602722
-0.0592041
-0.0582886
-0.0575256
-0.0567627
-0.0556946
-0.0550842
-0.0546265
-0.0543213
-0.0543213
-0.0537109
-0.0543213
-0.0538635
-0.0544739
-0.0549316
-0.0547791
-0.0553894
-0.0559998
-0.055542
-0.0563049
-0.0559998
-0.0559998
-0.0559998
-0.0558472
-0.0556946
-0.0553894
-0.0556946
-0.0558472
-0.0558472
-0.0563049
-0.0564575
-0.0569153
-0.0572205
-0.0575256
-0.0579834
-0.0585938
-0.0585938
-0.0585938
-0.0585938
-0.0584412
-0.0578308
-0.0579834
-0.0575256
-0.0570679
-0.0564575
-0.0559998
-0.055542
-0.055542
-0.055542
-0.055542
-0.0559998
-0.0564575
-0.0569153
-0.0572205
-0.0575256
-0.0584412
-0.0588989
-0.0588989
-0.0595093
-0.0596619
-0.0596619
-0.0598145
-0.0598145
-0.0596619
-0.0596619
-0.0598145
-0.059967
-0.0601196
-0.0601196
-0.06073
-0.0608826
-0.0614929
-0.0621033
-0.062561
-0.0630188
-0.0637817
-0.0640869
-0.0645447
-0.0648499
-0.0645447
-0.0642395
-0.0642395
-0.0639343
-0.0634766
-0.0634766
-0.0630188
-0.0624084
-0.0622559
-0.0627136
-0.0624084
-0.0622559
-0.0622559
-0.062561
-0.0627136
-0.0628662
-0.0630188
-0.063324
-0.0636292
-0.0634766
-0.0636292
-0.063324
-0.063324
-0.0630188
-0.0630188
-0.0630188
-0.0627136
-0.0628662
-0.0630188
-0.0634766
-0.0636292
-0.0645447
-0.0648499
-0.0656128
-0.065918
-0.0668335
-0.0671387
-0.0675964
-0.0675964
-0.0674438
-0.0675964
-0.0672913
-0.0672913
-0.0665283
-0.0657654
-0.0650024
-0.0645447
-0.0640869
-0.0637817
-0.0636292
-0.0631714
-0.0627136
-0.0630188
-0.0627136
-0.0622559
-0.062561
-0.062561
-0.0619507
-0.0621033
-0.0617981
-0.0614929
-0.0608826
-0.0602722
-0.059967
-0.0596619
-0.0590515
-0.0590515
-0.0585938
-0.0582886
-0.0587463
-0.0588989
-0.0593567
-0.0596619
-0.0598145
-0.0602722
-0.0604248
-0.0608826
-0.0608826
-0.0608826
-0.06073
-0.0604248
-0.0598145
-0.0595093
-0.0588989
-0.058136
-0.0569153
-0.0567627
-0.0559998
-0.0553894
-0.0552368
-0.0547791
-0.0549316
-0.0550842
-0.0552368
-0.0552368
-0.0556946
-0.0558472
-0.0561523
-0.0563049
-0.0566101
-0.0561523
-0.0559998
-0.055542
-0.0553894
-0.0544739
-0.0537109
-0.0534058
-0.052948
-0.0520325
-0.0515747
-0.0511169
-0.0508118
-0.050354
-0.0498962
-0.0495911
-0.0497437
-0.0492859
-0.0491333
-0.0492859
-0.0488281
-0.0486755
-0.0479126
-0.04776
-0.0473022
-0.0469971
-0.0463867
-0.0465393
-0.0462341
-0.0465393
-0.0468445
-0.0469971
-0.0476074
-0.0479126
-0.0482178
-0.0483704
-0.0492859
-0.0494385
-0.0494385
-0.0495911
-0.0494385
-0.0492859
-0.0485229
-0.0480652
-0.0476074
-0.0468445
-0.0465393
-0.045929
-0.0457764
-0.045166
-0.045166
-0.0448608
-0.0454712
-0.045166
-0.0450134
-0.0454712
-0.0454712
-0.0456238
-0.0457764
-0.0456238
-0.0456238
-0.0453186
-0.045166
-0.0447083
-0.0444031
-0.0434875
-0.0430298
-0.0424194
-0.0419617
-0.0416565
-0.0413513
-0.0410461
-0.0410461
-0.0408936
-0.0410461
-0.0408936
-0.0410461
-0.0411987
-0.0411987
-0.0408936
-0.040741
-0.0405884
-0.0398254
-0.0390625
-0.0386047
-0.0382996
-0.0375366
-0.0369263
-0.0367737
-0.0369263
-0.0366211
-0.0369263
-0.0369263
-0.0370789
-0.0378418
-0.0378418
-0.0379944
-0.0386047
-0.0386047
-0.0387573
-0.0390625
-0.0387573
-0.0382996
-0.0382996
-0.0378418
-0.0375366
-0.0366211
-0.0363159
-0.0357056
-0.0350952
-0.0349426
-0.0350952
-0.03479
-0.0344849
-0.0349426
-0.0352478
-0.0354004
-0.0352478
-0.035553
-0.0354004
-0.0350952
-0.0352478
-0.0343323
-0.0340271
-0.0334167
-0.0328064
-0.0317383
-0.0315857
-0.0311279
-0.0308228
-0.0300598
-0.030365
-0.0302124
-0.0302124
-0.0302124
-0.0308228
-0.0308228
-0.0308228
-0.0309753
-0.0311279
-0.0309753
-0.0314331
-0.0308228
-0.0306702
-0.0300598
-0.0299072
-0.0294495
-0.0288391
-0.0286865
-0.0286865
-0.0285339
-0.0282288
-0.0283813
-0.0285339
-0.0282288
-0.0283813
-0.0286865
-0.0288391
-0.0283813
-0.0282288
-0.0279236
-0.0274658
-0.0267029
-0.0265503
-0.0260925
-0.0254822
-0.0250244
-0.0244141
-0.0238037
-0.0239563
-0.0236511
-0.0236511
-0.0236511
-0.0241089
-0.0242615
-0.0247192
-0.025177
-0.0254822
-0.0253296
-0.0260925
-0.0260925
-0.0256348
-0.025177
-0.025177
-0.0248718
-0.0244141
-0.0242615
-0.0230408
-0.0228882
-0.0218201
-0.020752
-0.0195312
-0.0184631
-0.0166321
-0.0143433
-0.0119019
-0.00961304
-0.00640869
-0.00305176
0.0012207
0.00534058
0.0100708
0.0151062
0.0205994
0.0260925
0.0314331
0.0372314
0.0419617
0.0471497
0.0515747
0.0564575
0.0601196
0.0643921
0.0675964
0.0709534
0.0733948
0.0753784
0.0772095
0.0787354
0.0802612
0.0817871
0.0836182
0.0843811
0.0857544
0.0865173
0.0875854
0.0883484
0.0891113
0.0894165
0.0901794
0.0904846
0.0907898
0.0912476
0.091095
0.0914001
0.0914001
0.0909424
0.0912476
0.0914001
0.0915527
0.0917053
0.0921631
0.0924683
0.0923157
0.0918579
0.0914001
0.091095
0.0906372
0.0891113
0.087738
0.0856018
0.0830078
0.0799561
0.0765991
0.0723267
0.067749
0.062561
0.0567627
0.0505066
0.0442505
0.0376892
0.0306702
0.0236511
0.0164795
0.00930786
0.00198364
-0.00473022
-0.0117493
-0.0187683
-0.0260925
-0.0326538
-0.0389099
-0.0448608
-0.0502014
-0.0552368
-0.0595093
-0.0636292
-0.0674438
-0.0701904
-0.0727844
-0.0746155
-0.0761414
-0.0770569
-0.0776672
-0.0776672
-0.0778198
-0.0775146
-0.0769043
-0.0770569
-0.0767517
-0.0762939
-0.0764465
-0.0758362
-0.0759888
-0.075531
-0.0753784
-0.075531
-0.0752258
-0.0750732
-0.0746155
-0.0738525
-0.0733948
-0.0727844
-0.0717163
-0.0706482
-0.0695801
-0.0683594
-0.0674438
-0.0665283
-0.065918
-0.0656128
-0.0648499
-0.0645447
-0.0640869
-0.0631714
-0.0631714
-0.0631714
-0.062561
-0.0619507
-0.0616455
-0.0611877
-0.0604248
-0.0595093
-0.0585938
-0.0576782
-0.0569153
-0.0559998
-0.0549316
-0.0540161
-0.0535583
-0.0531006
-0.0527954
-0.0526428
-0.0520325
-0.0521851
-0.0518799
-0.0521851
-0.0521851
-0.0526428
-0.0532532
-0.0538635
-0.0547791
-0.0558472
-0.0570679
-0.0578308
-0.0593567
-0.0611877
-0.0624084
-0.0639343
-0.0650024
-0.0654602
-0.065918
-0.0643921
-0.0619507
-0.0576782
-0.0509644
-0.0421143
-0.0302124
-0.0144958
0.00473022
0.0280762
0.0550842
0.0869751
0.122833
0.162964
0.207062
0.254669
0.305786
0.359802
0.41687
0.475922
0.537109
0.59906
0.65979
0.718842
0.773468
0.823669
0.866699
0.9021
0.930634
0.950012
0.960846
0.962219
0.952606
0.932617
0.901794
0.859985
0.808411
0.747986
0.679474
0.604706
0.524597
0.441589
0.355835
0.269623
0.184174
0.101166
0.0221252
-0.0518799
-0.120392
-0.181427
-0.234528
-0.278778
-0.314789
-0.341034
-0.358582
-0.368195
-0.370026
-0.365448
-0.354614
-0.339508
-0.320435
-0.297699
-0.273285
-0.247803
-0.222626
-0.196838
-0.172577
-0.149384
-0.128174
-0.1091
-0.0921631
-0.0776672
-0.0660706
-0.0561523
-0.0494385
-0.0447083
-0.0418091
-0.0415039
-0.0424194
-0.0453186
-0.0491333
-0.0534058
-0.0584412
-0.0637817
-0.0694275
-0.0744629
-0.0794983
-0.0837708
-0.0874329
-0.0900269
-0.0923157
-0.0938416
-0.0946045
-0.0947571
-0.0942993
-0.092926
-0.0914001
-0.0898743
-0.0881958
-0.0863647
-0.0848389
-0.0830078
-0.0813293
-0.0801086
-0.0785828
-0.0776672
-0.0765991
-0.0758362
-0.0746155
-0.0737
-0.072937
-0.0720215
-0.0712585
-0.0706482
-0.0697327
-0.0689697
-0.0682068
-0.0679016
-0.0674438
-0.0671387
-0.0663757
-0.0660706
-0.0656128
-0.0654602
-0.0648499
-0.0645447
-0.0637817
-0.0634766
-0.0628662
-0.0621033
-0.0610352
-0.0601196
-0.0584412
-0.0578308
-0.0564575
-0.0552368
-0.0543213
-0.0531006
-0.0526428
-0.0520325
-0.0512695
-0.0506592
-0.0505066
-0.0497437
-0.0491333
-0.0486755
-0.0479126
-0.0473022
-0.0466919
-0.0453186
-0.0444031
-0.0428772
-0.0415039
-0.0402832
-0.0386047
-0.0372314
-0.0357056
-0.0341797
-0.0335693
-0.0323486
-0.0320435
-0.0312805
-0.030365
-0.0300598
-0.0292969
-0.0288391
-0.0285339
-0.0279236
-0.0273132
-0.0262451
-0.0254822
-0.0244141
-0.0231934
-0.0221252
-0.020752
-0.0195312
-0.0178528
-0.0167847
-0.0157166
-0.0146484
-0.0138855
-0.0131226
-0.0120544
-0.0114441
-0.0109863
-0.0102234
-0.00946045
-0.00900269
-0.00808716
-0.00701904
-0.00610352
-0.00473022
-0.0038147
-0.00244141
-0.00106812
-0.000305176
0.000762939
0.00213623
0.00320435
0.00411987
0.0050354
0.00595093
0.00686646
0.00778198
0.00900269
0.00991821
0.0105286
0.0117493
0.0134277
0.0143433
0.0157166
0.017395
0.0190735
0.0205994
0.0224304
0.0241089
0.0256348
0.0268555
0.0282288
0.0288391
0.0300598
0.0306702
0.0312805
0.032196
0.032959
0.0335693
0.0343323
0.0352478
0.0363159
0.0378418
0.0390625
0.040741
0.0421143
0.0439453
0.0460815
0.0480652
0.0502014
0.0523376
0.0544739
0.0561523
0.0585938
0.059967
0.0621033
0.0637817
0.0654602
0.067749
0.0689697
0.0708008
0.0726318
0.0744629
0.0769043
0.0787354
0.0810242
0.0830078
0.0856018
0.0878906
0.0897217
0.0923157
0.0944519
0.096283
0.0984192
0.100098
0.101776
0.103455
0.105286
0.106659
0.108795
0.110321
0.11261
0.114594
0.11673
0.119476
0.121765
0.124054
0.126648
0.129242
0.131683
0.13443
0.136719
0.13916
0.141144
0.143738
0.146027
0.14801
0.150146
0.152435
0.154572
0.156708
0.158844
0.161285
0.164185
0.166626
0.168762
0.171509
0.17334
0.175781
0.177917
0.179443
0.181122
0.182495
0.183716
0.184784
0.185394
0.186462
0.187073
0.187683
0.187988
0.188599
0.189209
0.189819
0.189972
0.19104
0.191498
0.192261
0.192871
0.193787
0.194092
0.19455
0.194397
0.194244
0.193329
0.193176
0.192413
0.19165
0.190277
0.189667
0.188141
0.187073
0.185394
0.184021
0.183258
0.18158
0.179596
0.178528
0.177155
0.175476
0.173798
0.171661
0.169373
0.166626
0.163879
0.160675
0.157318
0.154419
0.150604
0.146637
0.142517
0.138702
0.134583
0.130157
0.125732
0.121002
0.116882
0.112305
0.107727
0.102692
0.0979614
0.0927734
0.0869751
0.0811768
0.0756836
0.0700378
0.0639343
0.0578308
0.0515747
0.0460815
0.0398254
0.03479
0.0292969
0.0242615
0.0190735
0.0144958
0.00976562
0.0050354
0.000915527
-0.00350952
-0.00808716
-0.0128174
-0.0172424
-0.0224304
-0.0267029
-0.0315857
-0.0363159
-0.040741
-0.0454712
-0.0498962
-0.0544739
-0.0587463
-0.063324
-0.0672913
-0.070343
-0.0740051
-0.0769043
-0.0799561
-0.08255
-0.085144
-0.087738
-0.0900269
-0.0926208
-0.0947571
-0.0975037
-0.0993347
-0.101624
-0.103455
-0.105438
-0.107117
-0.108948
-0.110016
-0.111389
-0.112152
-0.11322
-0.114288
-0.114441
-0.114899
-0.115662
-0.115509
-0.115509
-0.115814
-0.116119
-0.116119
-0.115967
-0.116425
-0.116577
-0.116425
-0.11673
-0.117035
-0.116882
-0.117188
-0.117188
-0.116882
-0.116577
-0.116425
-0.115967
-0.115662
-0.114746
-0.114136
-0.113525
-0.113373
-0.112762
-0.11261
-0.11261
-0.112305
-0.112
-0.111694
-0.111542
-0.111084
-0.110931
-0.110626
-0.109863
-0.108795
-0.108032
-0.106812
-0.105438
-0.104218
-0.102234
-0.101013
-0.0991821
-0.0982666
-0.0970459
-0.0958252
-0.0947571
-0.0939941
-0.0927734
-0.0918579
-0.0912476
-0.090332
-0.0892639
-0.0886536
-0.0874329
-0.0862122
-0.0852966
-0.0837708
-0.0822449
-0.0814819
-0.0799561
-0.0785828
-0.0773621
-0.0764465
-0.0753784
-0.0743103
-0.0735474
-0.0732422
-0.0726318
-0.0723267
-0.0715637
-0.0708008
-0.0706482
-0.0701904
-0.0695801
-0.0689697
-0.0682068
-0.0668335
-0.0663757
-0.0653076
-0.0642395
-0.0634766
-0.0622559
-0.0616455
-0.0611877
-0.0605774
-0.0604248
-0.0601196
-0.059967
-0.0596619
-0.0596619
-0.0596619
-0.0598145
-0.0598145
-0.0593567
-0.0595093
-0.0588989
-0.0585938
-0.058136
-0.0576782
-0.0569153
-0.0559998
-0.055542
-0.0552368
-0.0552368
-0.0547791
-0.0549316
-0.0552368
-0.0547791
-0.0549316
-0.055542
-0.0558472
-0.0559998
-0.0563049
-0.0564575
-0.0561523
-0.0561523
-0.0559998
-0.055542
-0.0558472
-0.0556946
-0.0553894
-0.055542
-0.0552368
-0.0553894
-0.0559998
-0.0561523
-0.0569153
-0.0572205
-0.0576782
-0.0584412
-0.0593567
-0.0598145
-0.0602722
-0.0604248
-0.06073
-0.0610352
-0.0608826
-0.0610352
-0.06073
-0.06073
-0.0605774
-0.0602722
-0.0602722
-0.06073
-0.0610352
-0.0613403
-0.0611877
-0.0617981
-0.0622559
-0.0630188
-0.0634766
-0.0636292
-0.0640869
-0.0648499
-0.0646973
-0.0645447
-0.0646973
-0.0643921
-0.0640869
-0.0640869
-0.0640869
-0.0637817
-0.0634766
-0.0634766
-0.0639343
-0.0642395
-0.0643921
-0.0646973
-0.065155
-0.0654602
-0.065918
-0.0662231
-0.0665283
-0.0662231
-0.0665283
-0.0665283
-0.065918
-0.0657654
-0.0656128
-0.0653076
-0.0646973
-0.0643921
-0.0648499
-0.0646973
-0.0650024
-0.065155
-0.0653076
-0.0656128
-0.0660706
-0.0665283
-0.0671387
-0.0674438
-0.067749
-0.0680542
-0.0683594
-0.0680542
-0.0675964
-0.067749
-0.0674438
-0.0669861
-0.0665283
-0.0665283
-0.0662231
-0.0662231
-0.0660706
-0.0663757
-0.0660706
-0.0660706
-0.0662231
-0.0666809
-0.0666809
-0.0669861
-0.0672913
-0.0672913
-0.0668335
-0.0668335
-0.0668335
-0.0665283
-0.0663757
-0.065918
-0.0657654
-0.0654602
-0.0650024
-0.0646973
-0.0646973
-0.0648499
-0.0645447
-0.0650024
-0.0650024
-0.065155
-0.0654602
-0.065155
-0.065155
-0.0648499
-0.0646973
-0.0640869
-0.063324
-0.0631714
-0.0622559
-0.0619507
-0.0611877
-0.06073
-0.0602722
-0.059967
-0.0595093
-0.0593567
-0.0595093
-0.0592041
-0.0593567
-0.0590515
-0.0592041
-0.0593567
-0.0595093
-0.0593567
-0.0588989
-0.0584412
-0.0579834
-0.057373
-0.0567627
-0.0559998
-0.0552368
-0.0546265
-0.0543213
-0.0541687
-0.0537109
-0.0541687
-0.0538635
-0.0544739
-0.0547791
-0.0550842
-0.0553894
-0.0558472
-0.055542
-0.0558472
-0.0558472
-0.0556946
-0.0552368
-0.0549316
-0.0546265
-0.0541687
-0.0532532
-0.0527954
-0.0523376
-0.0521851
-0.0518799
-0.0515747
-0.0511169
-0.0508118
-0.050354
-0.0505066
-0.0500488
-0.0494385
-0.0492859
-0.0486755
-0.0485229
-0.0480652
-0.0474548
-0.0468445
-0.045929
-0.0454712
-0.0445557
-0.0439453
-0.043335
-0.0431824
-0.042572
-0.0428772
-0.0428772
-0.0430298
-0.043335
-0.0434875
-0.0439453
-0.0444031
-0.0444031
-0.0440979
-0.0440979
-0.0439453
-0.0437927
-0.0431824
-0.0428772
-0.0427246
-0.0419617
-0.0410461
-0.0410461
-0.0411987
-0.0410461
-0.0411987
-0.0413513
-0.0411987
-0.0415039
-0.0413513
-0.0418091
-0.0416565
-0.0411987
-0.0410461
-0.0404358
-0.0398254
-0.0396729
-0.0389099
-0.0378418
-0.037384
-0.0366211
-0.0357056
-0.035553
-0.0349426
-0.03479
-0.0343323
-0.03479
-0.03479
-0.03479
-0.0346375
-0.0350952
-0.0354004
-0.0350952
-0.035553
-0.0354004
-0.0349426
-0.03479
-0.0341797
-0.0338745
-0.0331116
-0.0323486
-0.0320435
-0.0312805
-0.0312805
-0.0309753
-0.0308228
-0.0306702
-0.0302124
-0.030365
-0.0302124
-0.0300598
-0.0297546
-0.0297546
-0.0288391
-0.0286865
-0.0279236
-0.027771
-0.0274658
-0.0273132
-0.0267029
-0.0260925
-0.0257874
-0.0256348
-0.0259399
-0.0257874
-0.0265503
-0.0268555
-0.0274658
-0.027771
-0.0289917
-0.0296021
-0.0300598
-0.0306702
-0.0308228
-0.0306702
-0.0302124
-0.0299072
-0.0296021
-0.0289917
-0.0282288
-0.0276184
-0.0265503
-0.0260925
-0.025177
-0.0248718
-0.0244141
-0.0236511
-0.0233459
-0.0231934
-0.0227356
-0.0222778
-0.022583
-0.0221252
-0.0218201
-0.0213623
-0.0215149
-0.0210571
-0.0209045
-0.0205994
-0.0198364
-0.0195312
-0.0190735
-0.0187683
-0.0186157
-0.0186157
-0.0189209
-0.0187683
-0.0190735
-0.0192261
-0.0193787
-0.0195312
-0.0204468
-0.020752
-0.0209045
-0.0209045
-0.0204468
-0.0205994
-0.020752
-0.0205994
-0.0205994
-0.0202942
-0.0204468
-0.0205994
-0.0209045
-0.0209045
-0.0213623
-0.0215149
-0.0218201
-0.0219727
-0.0224304
-0.0227356
-0.0230408
-0.0227356
-0.0227356
-0.0222778
-0.0215149
-0.020752
-0.019989
-0.0192261
-0.0178528
-0.0172424
-0.0157166
-0.0151062
-0.0144958
-0.0137329
-0.0134277
-0.0134277
-0.0134277
-0.0135803
-0.0135803
-0.0143433
-0.0146484
-0.0149536
-0.0154114
-0.0158691
-0.0161743
-0.0167847
-0.0170898
-0.0169373
-0.0175476
-0.017395
-0.0177002
-0.0180054
-0.0183105
-0.0192261
-0.0193787
-0.0196838
-0.019989
-0.019989
-0.0201416
-0.0202942
-0.0201416
-0.0198364
-0.0192261
-0.0190735
-0.0178528
-0.0170898
-0.0161743
-0.0157166
-0.0149536
-0.0134277
-0.0132751
-0.0126648
-0.01297
-0.0128174
-0.0128174
-0.0134277
-0.0137329
-0.0138855
-0.014801
-0.0151062
-0.0152588
-0.0161743
-0.0161743
-0.0167847
-0.0167847
-0.0167847
-0.0169373
-0.0163269
-0.0160217
-0.0157166
-0.0149536
-0.014801
-0.0140381
-0.0138855
-0.0134277
-0.0134277
-0.0135803
-0.0134277
-0.0134277
-0.0134277
-0.01297
-0.0131226
-0.0120544
-0.0115967
-0.0100708
-0.00854492
-0.00671387
-0.00473022
-0.00244141
0.000610352
0.00320435
0.00610352
0.00930786
0.01297
0.0164795
0.0202942
0.0242615
0.0288391
0.0332642
0.0382996
0.0419617
0.0465393
0.0512695
0.0553894
0.059967
0.0640869
0.068512
0.0723267
0.0758362
0.0790405
0.0820923
0.0845337
0.0865173
0.0880432
0.0891113
0.090332
0.091095
0.0915527
0.0917053
0.0917053
0.0915527
0.091095
0.0907898
0.0906372
0.0907898
0.0907898
0.0907898
0.0918579
0.0915527
0.0920105
0.0923157
0.0923157
0.0926208
0.0920105
0.0920105
0.0915527
0.0907898
0.0907898
0.0897217
0.0892639
0.0881958
0.0872803
0.0863647
0.0856018
0.0846863
0.0830078
0.0816345
0.0794983
0.0772095
0.0740051
0.070343
0.0656128
0.0608826
0.0553894
0.0492859
0.042572
0.035553
0.0285339
0.0209045
0.0128174
0.00534058
-0.00213623
-0.00946045
-0.0163269
-0.0233459
-0.0291443
-0.0349426
-0.0398254
-0.0445557
-0.0482178
-0.0520325
-0.0552368
-0.0578308
-0.0605774
-0.0621033
-0.0634766
-0.0645447
-0.065155
-0.065918
-0.0662231
-0.065918
-0.0653076
-0.0653076
-0.0648499
-0.0639343
-0.063324
-0.0624084
-0.0617981
-0.06073
-0.059967
-0.0595093
-0.0585938
-0.0579834
-0.0578308
-0.0576782
-0.0572205
-0.0569153
-0.0566101
-0.0563049
-0.0559998
-0.055542
-0.0553894
-0.0550842
-0.0543213
-0.0535583
-0.0532532
-0.0527954
-0.0521851
-0.0515747
-0.0506592
-0.0502014
-0.0495911
-0.0491333
-0.0492859
-0.0491333
-0.0486755
-0.0485229
-0.0482178
-0.0485229
-0.0482178
-0.0479126
-0.0474548
-0.0468445
-0.0463867
-0.0456238
-0.0447083
-0.043335
-0.0421143
-0.0413513
-0.0401306
-0.0390625
-0.0389099
-0.0387573
-0.0390625
-0.0396729
-0.0410461
-0.0421143
-0.0442505
-0.0466919
-0.0498962
-0.0527954
-0.0556946
-0.0590515
-0.0613403
-0.0636292
-0.0650024
-0.0653076
-0.0640869
-0.0621033
-0.0579834
-0.0515747
-0.0427246
-0.0315857
-0.0164795
0.00137329
0.0238037
0.0494385
0.0790405
0.112762
0.150604
0.191956
0.236816
0.285339
0.337219
0.391998
0.449829
0.509186
0.570221
0.630798
0.689697
0.745544
0.796661
0.841064
0.879059
0.909424
0.932159
0.945892
0.950775
0.945892
0.930481
0.904694
0.868835
0.823059
0.769043
0.706024
0.636749
0.562744
0.484467
0.402832
0.32074
0.238342
0.157013
0.0785828
0.00442505
-0.065155
-0.128632
-0.184937
-0.233917
-0.274658
-0.306854
-0.330811
-0.346222
-0.354156
-0.35553
-0.350189
-0.339966
-0.325012
-0.306854
-0.286255
-0.263062
-0.240021
-0.216522
-0.193329
-0.171204
-0.150909
-0.131531
-0.114594
-0.0996399
-0.0869751
-0.0761414
-0.0682068
-0.0616455
-0.0572205
-0.0547791
-0.0534058
-0.0540161
-0.0552368
-0.0578308
-0.0604248
-0.0643921
-0.0679016
-0.0724792
-0.0764465
-0.0804138
-0.0845337
-0.0881958
-0.0907898
-0.0932312
-0.09552
-0.0970459
-0.0976562
-0.098114
-0.0975037
-0.0967407
-0.0958252
-0.0944519
-0.092926
-0.0909424
-0.0891113
-0.0871277
-0.085144
-0.0836182
-0.0820923
-0.0808716
-0.0794983
-0.0785828
-0.0772095
-0.0764465
-0.0753784
-0.0747681
-0.0740051
-0.0726318
-0.0720215
-0.071106
-0.0700378
-0.0692749
-0.068512
-0.0675964
-0.0668335
-0.0663757
-0.0654602
-0.0648499
-0.0650024
-0.0650024
-0.065155
-0.0645447
-0.0645447
-0.0640869
-0.0645447
-0.0639343
-0.0639343
-0.0631714
-0.0631714
-0.0624084
-0.0611877
-0.0598145
-0.0582886
-0.0564575
-0.0556946
-0.0537109
-0.0523376
-0.0506592
-0.0495911
-0.0483704
-0.0479126
-0.0469971
-0.045929
-0.0454712
-0.0447083
-0.0442505
-0.0436401
-0.0431824
-0.0430298
-0.0422668
-0.0413513
-0.0402832
-0.0396729
-0.0389099
-0.0378418
-0.0366211
-0.0357056
-0.0349426
-0.0341797
-0.0335693
-0.0326538
-0.0317383
-0.0311279
-0.030365
-0.0296021
-0.0289917
-0.0283813
-0.0279236
-0.0268555
-0.0259399
-0.0248718
-0.0238037
-0.0221252
-0.0210571
-0.0193787
-0.0178528
-0.0163269
-0.0149536
-0.0138855
-0.0128174
-0.0120544
-0.0112915
-0.0102234
-0.00961304
-0.00869751
-0.00854492
-0.00778198
-0.00686646
-0.00595093
-0.00488281
-0.00396729
-0.00289917
-0.00167847
-0.000152588
0.000762939
0.00183105
0.00274658
0.0038147
0.00488281
0.00564575
0.00656128
0.00701904
0.00808716
0.0088501
0.00930786
0.0100708
0.0109863
0.012207
0.0132751
0.0141907
0.0152588
0.0169373
0.018158
0.0195312
0.0205994
0.022583
0.0239563
0.025177
0.0268555
0.027771
0.0288391
0.0296021
0.0306702
0.0311279
0.0317383
0.0325012
0.0337219
0.0346375
0.0360107
0.0372314
0.0382996
0.0401306
0.0415039
0.0431824
0.0450134
0.0469971
0.0488281
0.0502014
0.0517273
0.0532532
0.0547791
0.0563049
0.0578308
0.0593567
0.0611877
0.0630188
0.0645447
0.0665283
0.068512
0.071106
0.0737
0.0761414
0.0785828
0.0816345
0.0843811
0.0871277
0.0898743
0.092926
0.0956726
0.098114
0.100098
0.102692
0.105133
0.107117
0.1091
0.110626
0.11261
0.114441
0.116577
0.118408
0.120392
0.121918
0.124054
0.126495
0.128479
0.130463
0.132751
0.134125
0.135956
0.137482
0.139008
0.140686
0.142059
0.14328
0.144653
0.146332
0.147552
0.149384
0.151215
0.15274
0.154877
0.156555
0.158081
0.159912
0.161591
0.162964
0.16449
0.165405
0.166473
0.167389
0.167694
0.168304
0.168915
0.169373
0.169373
0.169678
0.16983
0.170898
0.170593
0.171356
0.171967
0.172577
0.173492
0.17395
0.175171
0.175781
0.176392
0.176849
0.176849
0.176849
0.176392
0.175476
0.174408
0.173035
0.171204
0.16922
0.166931
0.164642
0.162201
0.15976
0.157013
0.154266
0.151215
0.148773
0.145569
0.14267
0.139008
0.135803
0.132141
0.128021
0.124207
0.120392
0.116119
0.111847
0.107727
0.103302
0.0990295
0.0947571
0.0901794
0.085907
0.0816345
0.0772095
0.0724792
0.0674438
0.0630188
0.058136
0.0534058
0.0483704
0.0430298
0.0382996
0.0326538
0.027771
0.0224304
0.0170898
0.0117493
0.00640869
0.00152588
-0.00320435
-0.00823975
-0.012207
-0.0170898
-0.0213623
-0.0262451
-0.0300598
-0.0346375
-0.0384521
-0.042572
-0.0468445
-0.0508118
-0.0547791
-0.0595093
-0.0631714
-0.0675964
-0.0717163
-0.075531
-0.0796509
-0.0830078
-0.0871277
-0.0898743
-0.0924683
-0.0946045
-0.0971985
-0.0990295
-0.100555
-0.101776
-0.103455
-0.104828
-0.106049
-0.107422
-0.108795
-0.110168
-0.111542
-0.112915
-0.114288
-0.115814
-0.117035
-0.11795
-0.119171
-0.119934
-0.121002
-0.12146
-0.12146
-0.12207
-0.122528
-0.122528
-0.122681
-0.123291
-0.123749
-0.124207
-0.124969
-0.125275
-0.125427
-0.126038
-0.126495
-0.126953
-0.127258
-0.127716
-0.127869
-0.127716
-0.127411
-0.127258
-0.126495
-0.125732
-0.124969
-0.123749
-0.122833
-0.12146
-0.12085
-0.119476
-0.118256
-0.11734
-0.116119
-0.115509
-0.114594
-0.113678
-0.112915
-0.112152
-0.111237
-0.110626
-0.109406
-0.108185
-0.107117
-0.105896
-0.104828
-0.103302
-0.102081
-0.101013
-0.100403
-0.0993347
-0.0987244
-0.0978088
-0.0967407
-0.0959778
-0.0949097
-0.0942993
-0.0932312
-0.0923157
-0.0915527
-0.0907898
-0.0897217
-0.0878906
-0.0866699
-0.0857544
-0.0846863
-0.0831604
-0.0820923
-0.0805664
-0.0804138
-0.0801086
-0.0801086
-0.0801086
-0.0801086
-0.0808716
-0.0810242
-0.0814819
-0.0816345
-0.0817871
-0.0819397
-0.0814819
-0.0808716
-0.0804138
-0.0798035
-0.0788879
-0.0779724
-0.0767517
-0.075531
-0.0743103
-0.072937
-0.0717163
-0.071106
-0.0700378
-0.0694275
-0.0686646
-0.067749
-0.0671387
-0.0665283
-0.0657654
-0.0650024
-0.0643921
-0.0634766
-0.0631714
-0.062561
-0.0614929
-0.06073
-0.0598145
-0.0590515
-0.0578308
-0.0569153
-0.0564575
-0.0559998
-0.0556946
-0.0552368
-0.0549316
-0.0549316
-0.0553894
-0.0553894
-0.0558472
-0.0556946
-0.0556946
-0.0558472
-0.0559998
-0.0558472
-0.0556946
-0.055542
-0.055542
-0.055542
-0.0558472
-0.0563049
-0.0570679
-0.0576782
-0.058136
-0.0593567
-0.059967
-0.0608826
-0.0616455
-0.0621033
-0.0624084
-0.0631714
-0.0631714
-0.063324
-0.0634766
-0.0634766
-0.063324
-0.0631714
-0.0631714
-0.0630188
-0.0630188
-0.0630188
-0.063324
-0.0639343
-0.0643921
-0.0654602
-0.0657654
-0.0669861
-0.0679016
-0.0694275
-0.070343
-0.0712585
-0.0723267
-0.0724792
-0.0732422
-0.0730896
-0.0730896
-0.072937
-0.0721741
-0.0715637
-0.0712585
-0.070343
-0.0694275
-0.0691223
-0.0682068
-0.067749
-0.0674438
-0.0663757
-0.0657654
-0.0657654
-0.065155
-0.0645447
-0.0645447
-0.0637817
-0.063324
-0.0631714
-0.0628662
-0.0628662
-0.0624084
-0.0628662
-0.0631714
-0.0630188
-0.0637817
-0.0646973
-0.0656128
-0.0662231
-0.0671387
-0.0679016
-0.0688171
-0.0697327
-0.070343
-0.0706482
-0.0712585
-0.0712585
-0.0706482
-0.0706482
-0.0700378
-0.0697327
-0.0689697
-0.0683594
-0.067749
-0.0671387
-0.0666809
-0.0663757
-0.0665283
-0.0663757
-0.0666809
-0.0666809
-0.0671387
-0.067749
-0.0679016
-0.0683594
-0.0683594
-0.0680542
-0.067749
-0.067749
-0.0671387
-0.0665283
-0.065918
-0.0653076
-0.065155
-0.065155
-0.0648499
-0.0643921
-0.0645447
-0.0643921
-0.0645447
-0.0643921
-0.0646973
-0.0648499
-0.065155
-0.0654602
-0.065918
-0.0656128
-0.0660706
-0.0660706
-0.0662231
-0.0662231
-0.0662231
-0.0660706
-0.0657654
-0.0660706
-0.065918
-0.0660706
-0.065918
-0.065918
-0.0656128
-0.0653076
-0.0650024
-0.0643921
-0.0637817
-0.0628662
-0.0616455
-0.0604248
-0.0592041
-0.0578308
-0.0566101
-0.0547791
-0.0537109
-0.0523376
-0.0508118
-0.0498962
-0.0497437
-0.0495911
-0.0497437
-0.0498962
-0.0502014
-0.0502014
-0.0509644
-0.0520325
-0.0531006
-0.0534058
-0.0537109
-0.0540161
-0.0541687
-0.0540161
-0.0537109
-0.0534058
-0.0524902
-0.0523376
-0.0517273
-0.0515747
-0.0508118
-0.0508118
-0.0506592
-0.0500488
-0.0497437
-0.0494385
-0.0494385
-0.0491333
-0.0486755
-0.0485229
-0.0483704
-0.0482178
-0.0479126
-0.0473022
-0.0473022
-0.0469971
-0.0466919
-0.0462341
-0.0462341
-0.045929
-0.0462341
-0.0466919
-0.0469971
-0.0476074
-0.0482178
-0.0486755
-0.0491333
-0.0497437
-0.0500488
-0.050354
-0.050354
-0.0502014
-0.0498962
-0.0494385
-0.0488281
-0.0480652
-0.0469971
-0.0463867
-0.0456238
-0.045166
-0.0445557
-0.0442505
-0.0440979
-0.0440979
-0.0440979
-0.0444031
-0.0440979
-0.0444031
-0.0445557
-0.0445557
-0.0445557
-0.0445557
-0.0442505
-0.0442505
-0.0442505
-0.0442505
-0.0437927
-0.0434875
-0.043335
-0.0430298
-0.0430298
-0.0427246
-0.0430298
-0.0428772
-0.042572
-0.0424194
-0.0421143
-0.0421143
-0.0419617
-0.0411987
-0.0410461
-0.039978
-0.0398254
-0.0392151
-0.0382996
-0.0376892
-0.0369263
-0.0364685
-0.0358582
-0.0357056
-0.0352478
-0.0352478
-0.0352478
-0.0352478
-0.0354004
-0.0357056
-0.0360107
-0.0364685
-0.0367737
-0.0375366
-0.0372314
-0.0375366
-0.0375366
-0.037384
-0.0370789
-0.0366211
-0.0366211
-0.0360107
-0.0354004
-0.0352478
-0.0352478
-0.0352478
-0.035553
-0.0358582
-0.0361633
-0.0367737
-0.0370789
-0.0372314
-0.0376892
-0.0378418
-0.038147
-0.0378418
-0.0378418
-0.0375366
-0.0375366
-0.0370789
-0.0364685
-0.0358582
-0.0354004
-0.0349426
-0.0346375
-0.0341797
-0.0341797
-0.0341797
-0.0338745
-0.0332642
-0.0332642
-0.0332642
-0.0326538
-0.0320435
-0.0314331
-0.0309753
-0.0302124
-0.0289917
-0.0276184
-0.0268555
-0.0257874
-0.0248718
-0.0239563
-0.0236511
-0.0231934
-0.0230408
-0.0230408
-0.0231934
-0.0233459
-0.0236511
-0.0242615
-0.0247192
-0.0254822
-0.0259399
-0.0262451
-0.0265503
-0.0268555
-0.0271606
-0.0268555
-0.0271606
-0.0274658
-0.0273132
-0.0274658
-0.0274658
-0.027771
-0.0282288
-0.0283813
-0.0289917
-0.0286865
-0.0286865
-0.0288391
-0.0289917
-0.0291443
-0.0286865
-0.0280762
-0.0276184
-0.0267029
-0.0256348
-0.0245667
-0.0238037
-0.0228882
-0.0215149
-0.0209045
-0.0195312
-0.0187683
-0.0178528
-0.0167847
-0.0158691
-0.0146484
-0.0135803
-0.0125122
-0.0112915
-0.00976562
-0.00732422
-0.00534058
-0.00320435
0.0
0.00289917
0.0062561
0.00976562
0.0132751
0.0170898
0.0202942
0.0242615
0.0279236
0.0314331
0.0350952
0.0382996
0.0413513
0.0442505
0.0462341
0.0486755
0.0502014
0.0517273
0.052948
0.0540161
0.0550842
0.0561523
0.0563049
0.0569153
0.0572205
0.0569153
0.0566101
0.0559998
0.0547791
0.0541687
0.0531006
0.0521851
0.0512695
0.0500488
0.0495911
0.0482178
0.0473022
0.0471497
0.0473022
0.0468445
0.0471497
0.0471497
0.0476074
0.0479126
0.0480652
0.0482178
0.0474548
0.0468445
0.0456238
0.0439453
0.0416565
0.0393677
0.0366211
0.0331116
0.0294495
0.0257874
0.0219727
0.017395
0.01297
0.00839233
0.00366211
-0.00106812
-0.00579834
-0.0106812
-0.0152588
-0.0204468
-0.025177
-0.0300598
-0.0346375
-0.0393677
-0.0436401
-0.0480652
-0.0521851
-0.0559998
-0.0596619
-0.062561
-0.065155
-0.0675964
-0.0695801
-0.0708008
-0.0715637
-0.0721741
-0.0720215
-0.0714111
-0.0708008
-0.0698853
-0.0686646
-0.0675964
-0.0666809
-0.0654602
-0.0646973
-0.0637817
-0.063324
-0.0621033
-0.0619507
-0.0617981
-0.0613403
-0.0610352
-0.0605774
-0.0605774
-0.0602722
-0.0596619
-0.0595093
-0.0593567
-0.0585938
-0.058136
-0.0579834
-0.0582886
-0.0582886
-0.0582886
-0.0587463
-0.0587463
-0.0584412
-0.0584412
-0.0584412
-0.0579834
-0.0576782
-0.0572205
-0.0563049
-0.0553894
-0.0547791
-0.0535583
-0.0521851
-0.0514221
-0.050354
-0.0492859
-0.0485229
-0.0476074
-0.0471497
-0.0469971
-0.0465393
-0.0465393
-0.0463867
-0.0463867
-0.0466919
-0.0476074
-0.0482178
-0.0495911
-0.0505066
-0.0521851
-0.0535583
-0.0552368
-0.0578308
-0.059967
-0.0622559
-0.0646973
-0.0665283
-0.0683594
-0.0697327
-0.0695801
-0.0686646
-0.0657654
-0.0613403
-0.0538635
-0.0437927
-0.0309753
-0.0141907
0.00686646
0.0318909
0.0602722
0.0935364
0.13031
0.171051
0.215454
0.263367
0.314484
0.368652
0.425873
0.485382
0.545959
0.607147
0.666809
0.723572
0.776215
0.823212
0.863495
0.896759
0.922546
0.940247
0.948639
0.947876
0.9375
0.916443
0.885925
0.845184
0.795898
0.73761
0.672302
0.601196
0.525208
0.446014
0.36499
0.283203
0.202179
0.123901
0.0480652
-0.0227356
-0.0881958
-0.147095
-0.199127
-0.243225
-0.279999
-0.308228
-0.328979
-0.342102
-0.348816
-0.349121
-0.344086
-0.335083
-0.321198
-0.305328
-0.287018
-0.267334
-0.24704
-0.226288
-0.205383
-0.185394
-0.166321
-0.148163
-0.131531
-0.116577
-0.103149
-0.0914001
-0.0813293
-0.0733948
-0.0671387
-0.0621033
-0.0592041
-0.0578308
-0.0582886
-0.0587463
-0.06073
-0.063324
-0.0666809
-0.0698853
-0.0733948
-0.0762939
-0.0794983
-0.0820923
-0.0843811
-0.085907
-0.0871277
-0.0880432
-0.0881958
-0.0878906
-0.0874329
-0.0868225
-0.0862122
-0.0852966
-0.0842285
-0.083313
-0.0827026
-0.0816345
-0.0808716
-0.0801086
-0.0796509
-0.0790405
-0.0785828
-0.0778198
-0.0772095
-0.0762939
-0.0756836
-0.0746155
-0.0738525
-0.072937
-0.0718689
-0.0712585
-0.0704956
-0.0700378
-0.0698853
-0.0689697
-0.068512
-0.0682068
-0.0679016
-0.0669861
-0.0665283
-0.0662231
-0.0654602
-0.0646973
-0.0639343
-0.0628662
-0.0619507
-0.06073
-0.0598145
-0.0584412
-0.0567627
-0.0559998
-0.0550842
-0.0537109
-0.0534058
-0.0524902
-0.0518799
-0.0515747
-0.0509644
-0.0506592
-0.0506592
-0.050354
-0.0494385
-0.0488281
-0.04776
-0.0468445
-0.0460815
-0.0448608
-0.0436401
-0.042572
-0.0415039
-0.0402832
-0.0392151
-0.0384521
-0.0378418
-0.0370789
-0.0364685
-0.0352478
-0.03479
-0.0337219
-0.0332642
-0.032196
-0.0311279
-0.0306702
-0.0289917
-0.027771
-0.0271606
-0.0257874
-0.0244141
-0.022583
-0.0215149
-0.0205994
-0.0193787
-0.0187683
-0.0178528
-0.0169373
-0.0161743
-0.0158691
-0.0149536
-0.0140381
-0.0135803
-0.0131226
-0.0125122
-0.0119019
-0.0105286
-0.00946045
-0.00869751
-0.00717163
-0.00610352
-0.00473022
-0.00335693
-0.00213623
-0.0012207
-0.000305176
0.000610352
0.0012207
0.00183105
0.00228882
0.00320435
0.00366211
0.00411987
0.00518799
0.00579834
0.00671387
0.00808716
0.00915527
0.0105286
0.0117493
0.0134277
0.0146484
0.0161743
0.0177002
0.0187683
0.0198364
0.0209045
0.0218201
0.0230408
0.0244141
0.0253296
0.0260925
0.0271606
0.0280762
0.0292969
0.0311279
0.0325012
0.0338745
0.035553
0.0372314
0.0390625
0.0405884
0.0422668
0.0439453
0.0454712
0.0466919
0.0480652
0.0495911
0.0505066
0.0521851
0.0531006
0.0543213
0.0556946
0.057373
0.0588989
0.06073
0.0621033
0.0645447
0.0666809
0.0689697
0.0712585
0.0735474
0.0764465
0.0785828
0.0808716
0.0827026
0.0846863
0.0869751
0.0888062
0.0909424
0.0924683
0.0942993
0.0958252
0.0975037
0.0994873
0.101776
0.104065
0.105896
0.10849
0.111237
0.113678
0.116577
0.119019
0.121613
0.123901
0.126038
0.128479
0.130615
0.132599
0.134735
0.136719
0.138397
0.140533
0.142517
0.144806
0.146332
0.148621
0.150604
0.153046
0.154877
0.157013
0.158691
0.160675
0.162201
0.163116
0.164185
0.165253
0.166016
0.166626
0.167084
0.167236
0.167542
0.167389
0.167999
0.167999
0.168152
0.16861
0.169067
0.169525
0.16983
0.170593
0.170898
0.171509
0.171509
0.171814
0.171814
0.171509
0.170898
0.170746
0.170135
0.169373
0.168152
0.166779
0.165863
0.16449
0.163269
0.162048
0.160675
0.158997
0.157318
0.155792
0.154419
0.152283
0.150299
0.147095
0.144501
0.141296
0.137939
0.133972
0.130615
0.126801
0.122833
0.118561
0.114288
0.110321
0.105896
0.102081
0.098114
0.0941467
0.0900269
0.0862122
0.08255
0.078125
0.0741577
0.0698853
0.0654602
0.0608826
0.0564575
0.0520325
0.0474548
0.0427246
0.0387573
0.0335693
0.0289917
0.0244141
0.0196838
0.0151062
0.0112915
0.00656128
0.00183105
-0.00152588
-0.00595093
-0.010376
-0.0143433
-0.0187683
-0.0236511
-0.0279236
-0.0323486
-0.0372314
-0.0418091
-0.0462341
-0.0505066
-0.0547791
-0.0590515
-0.0627136
-0.065918
-0.0695801
-0.0724792
-0.0753784
-0.0779724
-0.0799561
-0.0820923
-0.0843811
-0.0862122
-0.088501
-0.090332
-0.0924683
-0.0944519
-0.0964355
-0.0982666
-0.0997925
-0.101318
-0.102997
-0.104675
-0.106049
-0.106964
-0.107727
-0.10849
-0.1091
-0.109253
-0.109558
-0.109863
-0.109863
-0.109863
-0.109863
-0.110626
-0.110626
-0.111237
-0.111542
-0.111694
-0.112152
-0.111847
-0.112
-0.112
-0.111847
-0.111694
-0.111237
-0.110474
-0.109711
-0.108948
-0.108032
-0.106964
-0.105896
-0.105286
-0.104218
-0.103302
-0.102692
-0.101929
-0.100861
-0.10025
-0.0993347
-0.0987244
-0.0979614
-0.0968933
-0.096283
-0.0950623
-0.0939941
-0.0924683
-0.0914001
-0.0900269
-0.0883484
-0.0868225
-0.0854492
-0.0845337
-0.083313
-0.08255
-0.0814819
-0.0808716
-0.0801086
-0.0793457
-0.0785828
-0.0785828
-0.0778198
-0.0773621
-0.0767517
-0.075531
-0.0747681
-0.0743103
-0.0727844
-0.0717163
-0.0706482
-0.0695801
-0.0682068
-0.0671387
-0.0660706
-0.065155
-0.0643921
-0.0639343
-0.0631714
-0.062561
-0.0622559
-0.0617981
-0.0617981
-0.0613403
-0.0610352
-0.0605774
-0.059967
-0.0595093
-0.0587463
-0.0582886
-0.0575256
-0.0567627
-0.0564575
-0.0556946
-0.0553894
-0.0550842
-0.0552368
-0.0553894
-0.0558472
-0.0556946
-0.0561523
-0.0563049
-0.0566101
-0.0564575
-0.0566101
-0.0561523
-0.0559998
-0.0552368
-0.0546265
-0.0541687
-0.0535583
-0.0526428
-0.0523376
-0.0515747
-0.0511169
-0.0508118
-0.0509644
-0.0505066
-0.0505066
-0.0506592
-0.0508118
-0.0508118
-0.0512695
-0.0514221
-0.0517273
-0.0518799
-0.0523376
-0.0520325
-0.0521851
-0.0521851
-0.0520325
-0.0518799
-0.0518799
-0.0521851
-0.0523376
-0.0526428
-0.0531006
-0.0537109
-0.0540161
-0.0544739
-0.0550842
-0.0553894
-0.0564575
-0.0570679
-0.0569153
-0.0569153
-0.0567627
-0.0566101
-0.0566101
-0.0563049
-0.055542
-0.0553894
-0.0547791
-0.0546265
-0.0537109
-0.0540161
-0.0543213
-0.0546265
-0.0547791
-0.0549316
-0.055542
-0.0559998
-0.0563049
-0.0569153
-0.057373
-0.0576782
-0.058136
-0.0584412
-0.0584412
-0.0584412
-0.0579834
-0.0582886
-0.0582886
-0.058136
-0.0585938
-0.0587463
-0.0590515
-0.0595093
-0.0598145
-0.0601196
-0.0605774
-0.0610352
-0.0610352
-0.0616455
-0.0616455
-0.0616455
-0.0613403
-0.0611877
-0.06073
-0.0604248
-0.059967
-0.0593567
-0.0588989
-0.0587463
-0.0584412
-0.0582886
-0.0582886
-0.0585938
-0.0588989
-0.0587463
-0.0592041
-0.0592041
-0.0593567
-0.0592041
-0.0592041
-0.0590515
-0.0584412
-0.058136
-0.0576782
-0.0575256
-0.0566101
-0.0558472
-0.0553894
-0.0546265
-0.0541687
-0.0541687
-0.0541687
-0.0541687
-0.0544739
-0.0550842
-0.0552368
-0.0556946
-0.0563049
-0.0570679
-0.0575256
-0.0578308
-0.0578308
-0.0579834
-0.0582886
-0.0585938
-0.0588989
-0.0588989
-0.0585938
-0.0585938
-0.0587463
-0.0595093
-0.0590515
-0.059967
-0.059967
-0.0602722
-0.0605774
-0.0610352
-0.0608826
-0.0611877
-0.0616455
-0.0611877
-0.0610352
-0.0608826
-0.0601196
-0.0598145
-0.0595093
-0.0582886
-0.0576782
-0.0569153
-0.0569153
-0.0561523
-0.0564575
-0.0558472
-0.0556946
-0.0559998
-0.0563049
-0.0561523
-0.0563049
-0.0566101
-0.0567627
-0.0564575
-0.0561523
-0.0556946
-0.055542
-0.0549316
-0.0547791
-0.0547791
-0.0544739
-0.0540161
-0.0541687
-0.0537109
-0.0541687
-0.0544739
-0.0546265
-0.0547791
-0.0549316
-0.0550842
-0.0552368
-0.0552368
-0.0556946
-0.0552368
-0.0544739
-0.0540161
-0.0531006
-0.0527954
-0.0517273
-0.0509644
-0.0497437
-0.0488281
-0.0486755
-0.0485229
-0.0480652
-0.0480652
-0.0480652
-0.0483704
-0.0482178
-0.0485229
-0.0486755
-0.0488281
-0.0488281
-0.0489807
-0.0494385
-0.0492859
-0.0486755
-0.0486755
-0.0482178
-0.0480652
-0.04776
-0.0474548
-0.0474548
-0.0473022
-0.0473022
-0.0473022
-0.0473022
-0.0471497
-0.0471497
-0.0476074
-0.0476074
-0.0476074
-0.0473022
-0.0473022
-0.0469971
-0.0465393
-0.045929
-0.0457764
-0.0450134
-0.0447083
-0.0442505
-0.0439453
-0.0431824
-0.043335
-0.0437927
-0.0437927
-0.0439453
-0.0444031
-0.0444031
-0.0444031
-0.0447083
-0.045166
-0.0448608
-0.0448608
-0.0445557
-0.0442505
-0.0437927
-0.0431824
-0.042572
-0.0418091
-0.0411987
-0.0405884
-0.0404358
-0.0402832
-0.039978
-0.039978
-0.0401306
-0.0404358
-0.0404358
-0.0405884
-0.0405884
-0.0404358
-0.0401306
-0.039978
-0.0398254
-0.0395203
-0.0387573
-0.0386047
-0.0378418
-0.0370789
-0.0364685
-0.0360107
-0.0360107
-0.035553
-0.0354004
-0.0352478
-0.035553
-0.035553
-0.0354004
-0.0358582
-0.0358582
-0.0360107
-0.0361633
-0.0363159
-0.0363159
-0.0360107
-0.035553
-0.035553
-0.0352478
-0.0344849
-0.0340271
-0.0338745
-0.0338745
-0.0338745
-0.0337219
-0.0337219
-0.0335693
-0.0332642
-0.0338745
-0.0337219
-0.0341797
-0.0341797
-0.0338745
-0.0334167
-0.0334167
-0.0331116
-0.0323486
-0.032196
-0.0314331
-0.0309753
-0.0305176
-0.0300598
-0.0299072
-0.0300598
-0.0299072
-0.0302124
-0.0305176
-0.0302124
-0.0306702
-0.0312805
-0.0315857
-0.0318909
-0.032196
-0.0325012
-0.0323486
-0.0323486
-0.0317383
-0.0315857
-0.0314331
-0.0309753
-0.030365
-0.0305176
-0.0302124
-0.0299072
-0.0299072
-0.0297546
-0.0297546
-0.0300598
-0.0297546
-0.0299072
-0.0300598
-0.0297546
-0.0297546
-0.0292969
-0.0291443
-0.0286865
-0.0282288
-0.0276184
-0.0271606
-0.0262451
-0.0257874
-0.0256348
-0.0254822
-0.025177
-0.0253296
-0.0257874
-0.0257874
-0.0263977
-0.0265503
-0.0271606
-0.0274658
-0.027771
-0.0274658
-0.027771
-0.0279236
-0.0274658
-0.0274658
-0.0271606
-0.0265503
-0.0259399
-0.0254822
-0.0253296
-0.0248718
-0.0248718
-0.025177
-0.0247192
-0.0247192
-0.0242615
-0.0242615
-0.0247192
-0.0245667
-0.0241089
-0.0244141
-0.0236511
-0.0234985
-0.0230408
-0.0227356
-0.0222778
-0.0213623
-0.020752
-0.0201416
-0.0196838
-0.0195312
-0.0189209
-0.0190735
-0.0193787
-0.0193787
-0.0193787
-0.0198364
-0.019989
-0.0204468
-0.0202942
-0.0205994
-0.0202942
-0.0201416
-0.0196838
-0.0195312
-0.0190735
-0.0180054
-0.0178528
-0.0170898
-0.0167847
-0.0166321
-0.0163269
-0.0163269
-0.0164795
-0.0164795
-0.0164795
-0.0169373
-0.0170898
-0.0178528
-0.0180054
-0.018158
-0.0183105
-0.0184631
-0.0184631
-0.0184631
-0.0183105
-0.0183105
-0.0183105
-0.018158
-0.0178528
-0.018158
-0.018158
-0.0180054
-0.0180054
-0.0180054
-0.0178528
-0.0180054
-0.0180054
-0.0180054
-0.017395
-0.0170898
-0.0167847
-0.0161743
-0.0157166
-0.0143433
-0.0137329
-0.0131226
-0.0123596
-0.0119019
-0.0112915
-0.0111389
-0.0109863
-0.0109863
-0.0111389
-0.0115967
-0.0117493
-0.0120544
-0.012207
-0.012207
-0.0119019
-0.0109863
-0.00946045
-0.00823975
-0.0062561
-0.00396729
-0.00137329
0.00183105
0.00473022
0.00915527
0.0128174
0.017395
0.0216675
0.0257874
0.0302124
0.0344849
0.0389099
0.042572
0.0463867
0.0500488
0.0541687
0.0578308
0.0616455
0.0648499
0.0682068
0.071106
0.0730896
0.0750732
0.0765991
0.0787354
0.0791931
0.0801086
0.0808716
0.080719
0.0799561
0.0791931
0.0784302
0.0773621
0.0764465
0.0749207
0.0743103
0.0733948
0.0732422
0.0726318
0.0720215
0.0718689
0.0718689
0.0717163
0.0718689
0.0718689
0.0718689
0.0717163
0.0714111
0.0708008
0.0701904
0.0689697
0.0680542
0.0666809
0.065155
0.0631714
0.0614929
0.0593567
0.0567627
0.0541687
0.0509644
0.0479126
0.0440979
0.040741
0.0370789
0.032959
0.0283813
0.0236511
0.0186157
0.01297
0.00717163
0.00213623
-0.00366211
-0.00900269
-0.0143433
-0.0202942
-0.0253296
-0.0302124
-0.0344849
-0.0389099
-0.042572
-0.045929
-0.0491333
-0.0517273
-0.0537109
-0.0559998
-0.0572205
-0.0592041
-0.0601196
-0.0610352
-0.0621033
-0.0622559
-0.0628662
-0.0627136
-0.0627136
-0.0624084
-0.0617981
-0.0611877
-0.0601196
-0.0590515
-0.0578308
-0.0567627
-0.0547791
-0.0535583
-0.0526428
-0.0506592
-0.0500488
-0.0488281
-0.0482178
-0.04776
-0.0469971
-0.0469971
-0.0466919
-0.0466919
-0.0463867
-0.0462341
-0.0462341
-0.0462341
-0.0456238
-0.0456238
-0.0450134
-0.0448608
-0.0440979
-0.0431824
-0.042572
-0.0416565
-0.0410461
-0.040741
-0.0404358
-0.0398254
-0.039978
-0.0396729
-0.0390625
-0.0395203
-0.0390625
-0.0387573
-0.0382996
-0.038147
-0.0375366
-0.0372314
-0.0360107
-0.0354004
-0.0350952
-0.03479
-0.0344849
-0.0350952
-0.0357056
-0.0370789
-0.0379944
-0.0398254
-0.0421143
-0.0436401
-0.0462341
-0.0476074
-0.0497437
-0.0502014
-0.0502014
-0.0486755
-0.0456238
-0.0410461
-0.0337219
-0.0241089
-0.0108337
0.00534058
0.0257874
0.0495911
0.0775146
0.1091
0.145416
0.185089
0.228424
0.275421
0.32608
0.379944
0.436249
0.495453
0.556793
0.618896
0.680237
0.739288
0.794373
0.843964
0.887299
0.923462
0.951538
0.970764
0.980988
0.98053
0.970001
0.948029
0.915527
0.872192
0.818634
0.756531
0.68634
0.610199
0.529175
0.444641
0.358582
0.271912
0.186462
0.103607
0.0247192
-0.0492859
-0.117188
-0.177307
-0.229797
-0.274353
-0.309448
-0.335846
-0.353394
-0.362549
-0.364532
-0.359497
-0.349121
-0.333099
-0.313721
-0.29129
-0.266266
-0.240326
-0.214386
-0.188599
-0.164032
-0.140533
-0.118866
-0.0994873
-0.0827026
-0.0686646
-0.0569153
-0.0482178
-0.0413513
-0.0370789
-0.0349426
-0.0341797
-0.0354004
-0.0376892
-0.0410461
-0.0453186
-0.0495911
-0.0543213
-0.0585938
-0.0630188
-0.0672913
-0.0708008
-0.0740051
-0.0762939
-0.0785828
-0.0799561
-0.0808716
-0.0819397
-0.0820923
-0.0820923
-0.0814819
-0.0811768
-0.0802612
-0.0791931
-0.0779724
-0.0769043
-0.0752258
-0.0737
-0.0727844
-0.0709534
-0.0695801
-0.0680542
-0.0663757
-0.0650024
-0.0637817
-0.0627136
-0.0621033
-0.0613403
-0.06073
-0.0601196
-0.0598145
-0.0595093
-0.0592041
-0.0585938
-0.0584412
-0.0579834
-0.0575256
-0.0566101
-0.0556946
-0.0544739
-0.0535583
-0.0527954
-0.0517273
-0.0508118
-0.0497437
-0.0491333
-0.0488281
-0.0480652
-0.0482178
-0.04776
-0.0469971
-0.0474548
-0.0469971
-0.0465393
-0.0462341
-0.0456238
-0.0450134
-0.0439453
-0.0428772
-0.0421143
-0.0410461
-0.0398254
-0.0387573
-0.037384
-0.0363159
-0.035553
-0.0341797
-0.0338745
-0.0331116
-0.032196
-0.0315857
-0.0306702
-0.0302124
-0.0292969
-0.0280762
-0.0271606
-0.0260925
-0.0250244
-0.0234985
-0.0219727
-0.0210571
-0.0193787
-0.0183105
-0.0172424
-0.0160217
-0.0152588
-0.014801
-0.0141907
-0.0137329
-0.0135803
-0.0132751
-0.0128174
-0.01297
-0.01297
-0.0128174
-0.0126648
-0.0119019
-0.0112915
-0.010376
-0.00961304
-0.0088501
-0.00778198
-0.0062561
-0.00518799
-0.0038147
-0.00274658
-0.00152588
-0.000152588
0.000457764
0.00213623
0.00244141
0.00396729
0.00488281
0.00549316
0.00686646
0.00778198
0.00869751
0.0100708
0.0111389
0.0125122
0.0140381
0.0152588
0.0166321
0.0175476
0.0190735
0.0202942
0.0209045
0.0221252
0.0228882
0.0236511
0.0244141
0.025177
0.0262451
0.0271606
0.0279236
0.0289917
0.030365
0.0315857
0.0331116
0.0343323
0.0363159
0.0379944
0.0396729
0.0408936
0.0427246
0.0437927
0.0456238
0.0466919
0.0480652
0.0489807
0.0509644
0.0517273
0.0531006
0.0544739
0.0561523
0.0576782
0.0593567
0.0613403
0.0634766
0.0653076
0.067749
0.0700378
0.0723267
0.0746155
0.0765991
0.0787354
0.0804138
0.0820923
0.0840759
0.0862122
0.0874329
0.0889587
0.0907898
0.0921631
0.0938416
0.0958252
0.0979614
0.10025
0.102234
0.104828
0.107422
0.110168
0.113373
0.115967
0.118713
0.121613
0.123901
0.126801
0.129089
0.131378
0.133667
0.135498
0.138092
0.139923
0.142059
0.144196
0.146637
0.149078
0.151978
0.154266
0.156403
0.158997
0.161591
0.163422
0.166016
0.167694
0.169983
0.171356
0.173187
0.174866
0.176392
0.177612
0.179291
0.180817
0.18219
0.184174
0.185547
0.187073
0.189056
0.19043
0.191956
0.193481
0.194855
0.196075
0.197144
0.197601
0.198822
0.198975
0.198975
0.19928
0.199432
0.19928
0.198975
0.198364
0.197906
0.197754
0.197449
0.197296
0.196991
0.196533
0.196381
0.195923
0.19577
0.194702
0.193634
0.192566
0.191193
0.189514
0.187378
0.185394
0.183258
0.181122
0.178528
0.175629
0.172577
0.16983
0.166626
0.163727
0.160522
0.157166
0.153809
0.149841
0.146027
0.142212
0.137634
0.133209
0.128326
0.122833
0.117798
0.112305
0.106506
0.100861
0.0950623
0.0892639
0.0828552
0.0772095
0.0714111
0.0660706
0.0605774
0.0549316
0.0495911
0.0439453
0.0390625
0.0337219
0.0283813
0.0228882
0.0172424
0.0120544
0.00610352
0.000457764
-0.00488281
-0.0108337
-0.0161743
-0.0215149
-0.0267029
-0.0317383
-0.0364685
-0.0408936
-0.0450134
-0.0492859
-0.0534058
-0.0575256
-0.0611877
-0.0648499
-0.068512
-0.0721741
-0.0761414
-0.0796509
-0.0834656
-0.0869751
-0.0906372
-0.0939941
-0.0971985
-0.101013
-0.103912
-0.106506
-0.108948
-0.111084
-0.112915
-0.114746
-0.117035
-0.118256
-0.119781
-0.120697
-0.121918
-0.122986
-0.124207
-0.125275
-0.126343
-0.127106
-0.128021
-0.128784
-0.129395
-0.129852
-0.130463
-0.130615
-0.130768
-0.130157
-0.130157
-0.129395
-0.128632
-0.128174
-0.127106
-0.126343
-0.125275
-0.124969
-0.124207
-0.123596
-0.123291
-0.122681
-0.121918
-0.121918
-0.12146
-0.12085
-0.120087
-0.119629
-0.118561
-0.117645
-0.116577
-0.115356
-0.114288
-0.113068
-0.111847
-0.110168
-0.108948
-0.10788
-0.106812
-0.105591
-0.104523
-0.103912
-0.102692
-0.102081
-0.101166
-0.100861
-0.0997925
-0.0991821
-0.098114
-0.0967407
-0.09552
-0.0938416
-0.092926
-0.0917053
-0.0900269
-0.0883484
-0.0875854
-0.0862122
-0.0856018
-0.0848389
-0.0839233
-0.0831604
-0.08255
-0.0816345
-0.0810242
-0.0801086
-0.0791931
-0.0784302
-0.0773621
-0.0761414
-0.0749207
-0.0738525
-0.0723267
-0.071106
-0.0694275
-0.0680542
-0.0672913
-0.0662231
-0.065155
-0.0643921
-0.0639343
-0.0631714
-0.0628662
-0.062561
-0.0621033
-0.062561
-0.0622559
-0.0616455
-0.0610352
-0.0613403
-0.0608826
-0.0605774
-0.0598145
-0.0595093
-0.0590515
-0.0585938
-0.0579834
-0.058136
-0.0576782
-0.0579834
-0.0578308
-0.057373
-0.0578308
-0.057373
-0.057373
-0.0578308
-0.0575256
-0.0569153
-0.0567627
-0.0561523
-0.0553894
-0.0549316
-0.0543213
-0.0538635
-0.0531006
-0.0527954
-0.0520325
-0.0517273
-0.0514221
-0.0514221
-0.0517273
-0.0517273
-0.0517273
-0.0521851
-0.0526428
-0.0527954
-0.0532532
-0.0534058
-0.0535583
-0.0532532
-0.0531006
-0.0527954
-0.0524902
-0.0523376
-0.0518799
-0.0515747
-0.0515747
-0.0515747
-0.0515747
-0.0518799
-0.0520325
-0.0527954
-0.0532532
-0.0537109
-0.0543213
-0.0544739
-0.0552368
-0.055542
-0.0553894
-0.055542
-0.055542
-0.0553894
-0.0550842
-0.0546265
-0.0546265
-0.0547791
-0.0549316
-0.0552368
-0.0553894
-0.0563049
-0.0570679
-0.057373
-0.0582886
-0.0592041
-0.0602722
-0.0610352
-0.0617981
-0.0624084
-0.0627136
-0.0630188
-0.0634766
-0.0634766
-0.0637817
-0.0634766
-0.0636292
-0.0628662
-0.0631714
-0.0631714
-0.0628662
-0.0627136
-0.0628662
-0.0627136
-0.062561
-0.062561
-0.0622559
-0.0621033
-0.0613403
-0.0613403
-0.0605774
-0.0601196
-0.0593567
-0.0588989
-0.0578308
-0.0570679
-0.0566101
-0.0559998
-0.0559998
-0.0559998
-0.0559998
-0.0561523
-0.0570679
-0.0575256
-0.058136
-0.0593567
-0.0601196
-0.06073
-0.0614929
-0.0621033
-0.062561
-0.0627136
-0.0631714
-0.0631714
-0.0627136
-0.0627136
-0.0619507
-0.0614929
-0.0608826
-0.0605774
-0.0602722
-0.0601196
-0.0593567
-0.0592041
-0.0590515
-0.0587463
-0.0585938
-0.0584412
-0.0582886
-0.0579834
-0.0578308
-0.0572205
-0.0567627
-0.0566101
-0.0563049
-0.0553894
-0.0553894
-0.0552368
-0.0550842
-0.0556946
-0.0561523
-0.0563049
-0.0572205
-0.057373
-0.058136
-0.0587463
-0.0592041
-0.0595093
-0.0596619
-0.0598145
-0.0593567
-0.0588989
-0.0582886
-0.057373
-0.0567627
-0.0556946
-0.0544739
-0.0532532
-0.0521851
-0.0518799
-0.0506592
-0.050354
-0.0498962
-0.0495911
-0.0492859
-0.0497437
-0.0495911
-0.0502014
-0.0500488
-0.050354
-0.0498962
-0.0502014
-0.0502014
-0.0495911
-0.0497437
-0.0495911
-0.0489807
-0.0488281
-0.0482178
-0.0485229
-0.0483704
-0.0485229
-0.0483704
-0.0482178
-0.0479126
-0.04776
-0.0474548
-0.0471497
-0.0466919
-0.0463867
-0.0456238
-0.0450134
-0.0439453
-0.0431824
-0.042572
-0.0411987
-0.0404358
-0.039978
-0.0390625
-0.0386047
-0.0386047
-0.0386047
-0.0387573
-0.0384521
-0.0389099
-0.0389099
-0.0393677
-0.0395203
-0.039978
-0.0401306
-0.039978
-0.0398254
-0.0398254
-0.0398254
-0.0395203
-0.0389099
-0.0389099
-0.0387573
-0.0382996
-0.0382996
-0.038147
-0.038147
-0.0379944
-0.0382996
-0.0386047
-0.0387573
-0.0392151
-0.0396729
-0.0390625
-0.0395203
-0.0393677
-0.0392151
-0.0387573
-0.0382996
-0.0382996
-0.0376892
-0.0376892
-0.0372314
-0.0370789
-0.0370789
-0.0364685
-0.0364685
-0.0364685
-0.0361633
-0.0361633
-0.0358582
-0.0358582
-0.0358582
-0.0358582
-0.0350952
-0.0346375
-0.0341797
-0.0337219
-0.0331116
-0.0326538
-0.0317383
-0.0314331
-0.0309753
-0.0309753
-0.0311279
-0.0312805
-0.0315857
-0.032196
-0.032196
-0.0331116
-0.0332642
-0.0341797
-0.0346375
-0.0349426
-0.0354004
-0.035553
-0.0349426
-0.0350952
-0.0343323
-0.0340271
-0.0334167
-0.0328064
-0.0323486
-0.0320435
-0.0317383
-0.0315857
-0.0314331
-0.0314331
-0.0315857
-0.0312805
-0.0314331
-0.0309753
-0.0312805
-0.0312805
-0.0314331
-0.0309753
-0.0306702
-0.0300598
-0.0297546
-0.0294495
-0.0291443
-0.0280762
-0.0276184
-0.0273132
-0.0267029
-0.0265503
-0.0265503
-0.0265503
-0.0263977
-0.0270081
-0.0271606
-0.0268555
-0.0276184
-0.0276184
-0.0279236
-0.0274658
-0.0268555
-0.0267029
-0.0263977
-0.0257874
-0.0250244
-0.0244141
-0.0233459
-0.0227356
-0.0221252
-0.0216675
-0.0215149
-0.0210571
-0.020752
-0.020752
-0.0204468
-0.0204468
-0.0204468
-0.0204468
-0.0202942
-0.0198364
-0.0193787
-0.0192261
-0.0193787
-0.0189209
-0.0187683
-0.0184631
-0.0184631
-0.018158
-0.0184631
-0.0187683
-0.0192261
-0.0201416
-0.0205994
-0.020752
-0.0216675
-0.0224304
-0.0230408
-0.0233459
-0.0241089
-0.0244141
-0.0244141
-0.0244141
-0.0244141
-0.0247192
-0.0236511
-0.0234985
-0.0228882
-0.022583
-0.0219727
-0.0215149
-0.0212097
-0.0212097
-0.020752
-0.019989
-0.019989
-0.0198364
-0.0193787
-0.0193787
-0.0192261
-0.0187683
-0.018158
-0.0177002
-0.0167847
-0.0163269
-0.0154114
-0.014801
-0.0144958
-0.0143433
-0.0143433
-0.014801
-0.0151062
-0.0154114
-0.0157166
-0.0161743
-0.0160217
-0.0163269
-0.0167847
-0.0166321
-0.0163269
-0.0163269
-0.0160217
-0.0157166
-0.0152588
-0.0152588
-0.0151062
-0.0149536
-0.0149536
-0.0146484
-0.014801
-0.0152588
-0.0152588
-0.0157166
-0.0163269
-0.0163269
-0.0167847
-0.017395
-0.0170898
-0.0170898
-0.0170898
-0.0164795
-0.0164795
-0.0158691
-0.0152588
-0.0143433
-0.0132751
-0.0126648
-0.0119019
-0.0111389
-0.0105286
-0.0105286
-0.0105286
-0.0105286
-0.0106812
-0.0108337
-0.0115967
-0.0115967
-0.012207
-0.0125122
-0.0128174
-0.01297
-0.0128174
-0.0131226
-0.0134277
-0.01297
-0.0126648
-0.012207
-0.012207
-0.0119019
-0.0120544
-0.0117493
-0.0115967
-0.0119019
-0.0120544
-0.0125122
-0.0126648
-0.0131226
-0.0135803
-0.0137329
-0.0141907
-0.0138855
-0.0137329
-0.0134277
-0.0128174
-0.0125122
-0.0115967
-0.0109863
-0.00976562
-0.00854492
-0.00717163
-0.00564575
-0.00411987
-0.00228882
0.0
0.00289917
0.00564575
0.0088501
0.0123596
0.0160217
0.019989
0.0245667
0.0292969
0.0338745
0.0387573
0.043335
0.04776
0.0521851
0.0563049
0.0598145
0.0631714
0.065918
0.0683594
0.0704956
0.0721741
0.0738525
0.0750732
0.0756836
0.0764465
0.0776672
0.0782776
0.0791931
0.0805664
0.0817871
0.0831604
0.0845337
0.0862122
0.0881958
0.0904846
0.0920105
0.0939941
0.0956726
0.0973511
0.0987244
0.0994873
0.100403
0.101318
0.101776
0.101776
0.102081
0.102081
0.101471
0.101013
0.100555
0.0996399
0.098877
0.0975037
0.0965881
0.0947571
0.0926208
0.0904846
0.0874329
0.0845337
0.0805664
0.0769043
0.0720215
0.0672913
0.0614929
0.0558472
0.0494385
0.0428772
0.0369263
0.0299072
0.0227356
0.0160217
0.00854492
0.0012207
-0.00610352
-0.0137329
-0.0205994
-0.0279236
-0.0344849
-0.040741
-0.0460815
-0.0514221
-0.0556946
-0.0592041
-0.0622559
-0.0646973
-0.0662231
-0.0672913
-0.0679016
-0.0679016
-0.0672913
-0.0666809
-0.0657654
-0.0645447
-0.0631714
-0.0614929
-0.0601196
-0.0596619
-0.0588989
-0.0590515
-0.0584412
-0.0584412
-0.0588989
-0.0588989
-0.0593567
-0.0593567
-0.0595093
-0.0598145
