0.46936
0.46936
0.469971
0.469971
0.471497
0.471497
0.471497
0.472717
0.473022
0.473938
0.474243
0.475464
0.476074
0.47699
0.477905
0.478516
0.479431
0.480347
0.482178
0.483398
0.484619
0.485535
0.486755
0.487976
0.490112
0.491638
0.492554
0.494995
0.496216
0.498352
0.500488
0.501709
0.503845
0.505066
0.506592
0.508423
0.510864
0.51178
0.514526
0.516357
0.519104
0.520935
0.523071
0.524902
0.527649
0.529785
0.531921
0.534058
0.537109
0.53894
0.541382
0.543213
0.545349
0.548096
0.549622
0.552063
0.555115
0.55603
0.558777
0.560303
0.562439
0.564575
0.566406
0.569153
0.571289
0.57312
0.575562
0.577393
0.578613
0.581055
0.583191
0.584717
0.586853
0.587769
0.59021
0.592041
0.594482
0.596008
0.597229
0.59967
0.600891
0.602112
0.604248
0.606689
0.608521
0.609436
0.610962
0.613403
0.614014
0.615845
0.617065
0.618896
0.620117
0.621033
0.621643
0.623474
0.624084
0.625
0.625916
0.627747
0.627136
0.628967
0.630188
0.630798
0.631104
0.631104
0.632935
0.632629
0.63385
0.634155
0.634155
0.635071
0.635986
0.635986
0.635986
0.636292
0.636597
0.637207
0.637512
0.637512
0.637207
0.637512
0.637817
0.637817
0.638123
0.637512
0.638428
0.638733
0.638733
0.639343
0.639038
0.638123
0.638428
0.638123
0.638123
0.638123
0.637512
0.638123
0.636902
0.636902
0.635986
0.636292
0.636597
0.636597
0.635376
0.635376
0.634766
0.634155
0.63385
0.634155
0.63324
0.633545
0.632324
0.632629
0.631409
0.630188
0.630798
0.630188
0.629578
0.629883
0.628662
0.628052
0.628052
0.628052
0.627441
0.627136
0.626221
0.626526
0.626221
0.625305
0.625305
0.625
0.625
0.623779
0.623169
0.623169
0.621948
0.622559
0.621643
0.621643
0.620728
0.620728
0.620422
0.620117
0.619812
0.618896
0.618286
0.618591
0.618591
0.617981
0.617676
0.617065
0.617065
0.617065
0.61676
0.616455
0.61615
0.615234
0.61554
0.614929
0.614319
0.61554
0.615234
0.614319
0.614014
0.614319
0.614929
0.61554
0.614929
0.614929
0.614319
0.614929
0.614929
0.614319
0.614014
0.61554
0.614929
0.615234
0.615234
0.614319
0.61554
0.615234
0.615234
0.615234
0.615234
0.615234
0.615234
0.61554
0.61615
0.615234
0.616455
0.61554
0.615845
0.616455
0.615845
0.615234
0.615845
0.615234
0.61554
0.615845
0.61554
0.615234
0.615845
0.61554
0.616455
0.615845
0.615845
0.61554
0.61615
0.616455
0.615845
0.61615
0.616455
0.61554
0.61554
0.615845
0.615234
0.61554
0.61554
0.614929
0.614929
0.615234
0.61554
0.61615
0.61554
0.615845
0.615845
0.615234
0.61554
0.61615
0.615234
0.61554
0.615234
0.61554
0.614624
0.614014
0.613098
0.613708
0.613403
0.614014
0.612793
0.612793
0.612793
0.612183
0.612488
0.611877
0.611877
0.612183
0.610962
0.610962
0.610352
0.610962
0.609741
0.609436
0.609741
0.609131
0.608826
0.608521
0.608215
0.60791
0.607605
0.607605
0.606995
0.607605
0.6073
0.606995
0.606995
0.606689
0.606384
0.606079
0.605774
0.606079
0.605164
0.605469
0.606079
0.604858
0.604553
0.604553
0.603943
0.604248
0.603943
0.603943
0.603027
0.603638
0.603027
0.603027
0.602722
0.602417
0.601501
0.601807
0.601501
0.601501
0.600891
0.600891
0.600586
0.601501
0.600586
0.600281
0.600586
0.599976
0.599976
0.599976
0.59967
0.599976
0.600586
0.59967
0.599365
0.59967
0.598755
0.598755
0.59845
0.59845
0.59845
0.59845
0.597229
0.597839
0.597534
0.596924
0.596313
0.596619
0.596619
0.596619
0.596313
0.595703
0.596008
0.595703
0.595703
0.596008
0.596313
0.596008
0.595093
0.595703
0.595093
0.594788
0.594482
0.594788
0.594788
0.594788
0.594482
0.594177
0.594177
0.594482
0.594482
0.594482
0.594482
0.594482
0.594177
0.594177
0.594788
0.594482
0.595093
0.594482
0.594482
0.594482
0.594482
0.594177
0.594788
0.593262
0.594788
0.593567
0.592957
0.592957
0.593262
0.592651
0.592346
0.592346
0.591125
0.591736
0.59082
0.59021
0.59082
0.5896
0.588989
0.588989
0.588379
0.588684
0.587158
0.586243
0.585938
0.585327
0.585022
0.584717
0.583496
0.583191
0.583496
0.582581
0.58197
0.581665
0.58075
0.58136
0.580444
0.579529
0.579529
0.578308
0.578308
0.577087
0.577087
0.575867
0.575867
0.575256
0.575256
0.574341
0.574036
0.574341
0.573425
0.573425
0.572815
0.572815
0.571899
0.571594
0.570984
0.570068
0.570068
0.569763
0.569153
0.569153
0.567932
0.568848
0.567932
0.567017
0.567627
0.567017
0.566406
0.565796
0.565186
0.564575
0.56427
0.564575
0.563965
0.563049
0.562744
0.562439
0.562439
0.561829
0.561523
0.560608
0.560303
0.559692
0.559692
0.559692
0.558167
0.558472
0.557861
0.557556
0.556335
0.556335
0.55603
0.555115
0.555115
0.554199
0.553894
0.552673
0.552368
0.551453
0.551758
0.551147
0.550537
0.549927
0.549316
0.548706
0.548706
0.548401
0.548096
0.547791
0.54657
0.546875
0.545959
0.545044
0.545349
0.545349
0.544128
0.543823
0.543823
0.543518
0.543213
0.542908
0.541382
0.541687
0.540771
0.540771
0.539246
0.540161
0.539551
0.539856
0.53894
0.538025
0.538635
0.53833
0.537415
0.537109
0.537109
0.535889
0.535278
0.535278
0.534973
0.534973
0.534973
0.534668
0.534058
0.534058
0.534058
0.533447
0.533142
0.533142
0.532532
0.532532
0.532532
0.531921
0.532227
0.531006
0.530701
0.530701
0.530396
0.529785
0.52948
0.529175
0.528259
0.528259
0.527649
0.527649
0.526733
0.527039
0.526123
0.527039
0.526123
0.525818
0.525818
0.525208
0.524597
0.523987
0.523682
0.522766
0.523376
0.522461
0.522156
0.521545
0.521851
0.52124
0.52124
0.52124
0.52063
0.52002
0.520325
0.519714
0.519104
0.518799
0.519104
0.518799
0.519104
0.518494
0.517578
0.518799
0.517273
0.516357
0.516357
0.516357
0.516052
0.515442
0.515442
0.514832
0.514526
0.514526
0.514221
0.513306
0.514221
0.513
0.513306
0.513916
0.513306
0.51239
0.513916
0.513
0.51239
0.512085
0.51239
0.511475
0.51178
0.51178
0.511169
0.510864
0.511475
0.511169
0.509949
0.510559
0.510864
0.510864
0.511169
0.510559
0.510559
0.510559
0.509949
0.510254
0.510254
0.509949
0.509949
0.509949
0.509338
0.509949
0.510254
0.509338
0.509949
0.508423
0.508728
0.509033
0.508728
0.508118
0.508423
0.508728
0.507812
0.508423
0.508118
0.507507
0.507812
0.506897
0.507202
0.507202
0.506287
0.506287
0.505676
0.506897
0.505676
0.505676
0.505676
0.505371
0.504761
0.505066
0.505066
0.504761
0.503845
0.504761
0.50354
0.50354
0.50293
0.503235
0.50293
0.502319
0.502014
0.502014
0.501404
0.501404
0.500488
0.499878
0.500488
0.499878
0.499573
0.499268
0.500183
0.499268
0.499573
0.499268
0.499268
0.498352
0.498352
0.498047
0.498352
0.497437
0.497131
0.497437
0.497131
0.497742
0.496826
0.496826
0.496216
0.496521
0.4953
0.495911
0.495911
0.495911
0.495605
0.495605
0.495605
0.496216
0.4953
0.495605
0.4953
0.49469
0.49408
0.494385
0.493774
0.493774
0.493774
0.493469
0.49408
0.493164
0.493774
0.493469
0.493774
0.493469
0.493774
0.493164
0.493164
0.493164
0.493164
0.492554
0.492249
0.493164
0.492249
0.492554
0.491943
0.492249
0.491333
0.491333
0.491638
0.491943
0.491333
0.490723
0.490723
0.491333
0.490723
0.490723
0.490723
0.490112
0.489807
0.489807
0.490112
0.490417
0.489807
0.490112
0.489502
0.489502
0.489197
0.489502
0.488586
0.488586
0.489197
0.488586
0.488586
0.488892
0.488892
0.488586
0.487976
0.488586
0.488586
0.488586
0.487061
0.488281
0.488281
0.488281
0.487976
0.487671
0.488586
0.487976
0.488281
0.488281
0.487976
0.488586
0.487366
0.487061
0.487976
0.487671
0.487671
0.487366
0.486755
0.487061
0.487061
0.48645
0.48645
0.486145
0.486755
0.486145
0.48645
0.486145
0.48584
0.48584
0.48645
0.486145
0.485535
0.48584
0.485535
0.486145
0.486145
0.48584
0.486145
0.48645
0.48645
0.48584
0.485535
0.486145
0.48584
0.48584
0.486145
0.48584
0.48584
0.48645
0.486145
0.48584
0.486145
0.48584
0.48584
0.485535
0.48584
0.485229
0.485229
0.485535
0.485229
0.485229
0.484924
0.484924
0.484619
0.484924
0.484924
0.484619
0.484619
0.484924
0.484619
0.484619
0.484009
0.484314
0.483398
0.484314
0.484619
0.485229
0.484314
0.484009
0.484009
0.484009
0.483398
0.484009
0.482788
0.482483
0.483398
0.483093
0.483398
0.483398
0.482788
0.483398
0.482483
0.482788
0.482178
0.482483
0.482178
0.482178
0.482178
0.482483
0.481873
0.481873
0.481873
0.480957
0.481567
0.481262
0.481873
0.481567
0.481567
0.482178
0.481262
0.481262
0.482178
0.482483
0.481567
0.481873
0.480347
0.480652
0.480957
0.480957
0.480957
0.480957
0.480347
0.480347
0.480347
0.480957
0.480652
0.480652
0.480652
0.480652
0.480042
0.480652
0.480957
0.480957
0.480957
0.480347
0.480347
0.480652
0.480347
0.480347
0.480042
0.480347
0.480347
0.480652
0.480042
0.479431
0.480042
0.480042
0.479126
0.479431
0.479736
0.479431
0.480347
0.480042
0.479431
0.480042
0.479736
0.479736
0.479126
0.478821
0.478821
0.478821
0.4776
0.478516
0.47821
0.477905
0.47821
0.47821
0.477295
0.47821
0.477905
0.477295
0.477295
0.47699
0.47699
0.477295
0.47699
0.477295
0.476685
0.47699
0.476379
0.476685
0.475464
0.476074
0.47699
0.476074
0.476379
0.476074
0.476074
0.475769
0.475769
0.476074
0.475769
0.476685
0.475769
0.476379
0.476379
0.476379
0.476379
0.476379
0.476074
0.476685
0.476685
0.476379
0.476685
0.476379
0.476685
0.47699
0.475769
0.47699
0.476685
0.476685
0.476685
0.477295
0.477295
0.477295
0.477295
0.47821
0.477905
0.477905
0.47821
0.479431
0.478821
0.479431
0.480652
0.479736
0.480042
0.481262
0.481567
0.481567
0.483398
0.483398
0.484314
0.484314
0.485229
0.486145
0.487671
0.488281
0.488586
0.490112
0.491333
0.492249
0.492859
0.493774
0.494385
0.496216
0.496826
0.498962
0.499268
0.500793
0.50293
0.50354
0.505066
0.507202
0.508728
0.510254
0.51178
0.514526
0.515747
0.517273
0.519104
0.52124
0.522461
0.524292
0.526733
0.528259
0.529785
0.532227
0.534668
0.535583
0.538025
0.539856
0.542908
0.544128
0.546265
0.548401
0.550537
0.552673
0.554199
0.556335
0.557556
0.559998
0.561829
0.56366
0.565796
0.568237
0.569763
0.570679
0.572815
0.575256
0.576782
0.578613
0.58075
0.582886
0.583801
0.585938
0.587463
0.589294
0.591125
0.592957
0.593872
0.595093
0.596313
0.598755
0.59906
0.601501
0.601807
0.603333
0.605164
0.606079
0.607605
0.609131
0.609131
0.610352
0.610962
0.612793
0.614014
0.614014
0.61615
0.61554
0.616455
0.617676
0.617981
0.619202
0.619202
0.620117
0.620728
0.621338
0.621338
0.622253
0.623169
0.622864
0.623474
0.624084
0.624084
0.624695
0.625
0.624695
0.625
0.625
0.624695
0.625
0.625916
0.625305
0.624084
0.62439
0.624695
0.625
0.624695
0.625
0.624695
0.624084
0.623779
0.623779
0.623169
0.622864
0.622864
0.621948
0.621948
0.621643
0.621338
0.620728
0.620422
0.619202
0.618896
0.617981
0.617371
0.617676
0.61676
0.61615
0.61554
0.615234
0.613403
0.613403
0.613098
0.612183
0.611572
0.610962
0.611572
0.609741
0.609131
0.608826
0.608826
0.606995
0.607605
0.606384
0.605774
0.605164
0.604858
0.605469
0.603943
0.604248
0.603333
0.602722
0.603027
0.602417
0.602112
0.601196
0.601501
0.600586
0.600281
0.59967
0.599976
0.599365
0.59906
0.59906
0.598755
0.598755
0.598145
0.597229
0.597229
0.596924
0.597229
0.596924
0.597229
0.595703
0.595703
0.595093
0.594788
0.594482
0.593872
0.593262
0.593567
0.592957
0.592651
0.592957
0.592346
0.592651
0.592041
0.592651
0.59082
0.591125
0.590515
0.591736
0.591125
0.59082
0.59021
0.591125
0.5896
0.59021
0.5896
0.5896
0.5896
0.5896
0.589294
0.5896
0.588989
0.589294
0.588684
0.589294
0.588989
0.588989
0.589294
0.589294
0.588379
0.588684
0.588074
0.587769
0.587463
0.587769
0.587463
0.586853
0.586548
0.586853
0.586548
0.586243
0.586243
0.586548
0.585632
0.585938
0.585022
0.585327
0.584717
0.584412
0.584412
0.583801
0.583496
0.584412
0.583496
0.582886
0.582886
0.582275
0.58197
0.582275
0.582275
0.58197
0.58136
0.58136
0.58075
0.58075
0.58075
0.580444
0.579834
0.580139
0.579834
0.579224
0.578918
0.578308
0.578003
0.577698
0.577087
0.577087
0.578003
0.576782
0.577087
0.576477
0.576172
0.575562
0.576172
0.575867
0.575562
0.575867
0.575256
0.575562
0.575256
0.576172
0.574646
0.574341
0.574646
0.574341
0.574646
0.574341
0.574951
0.574646
0.574341
0.574646
0.574036
0.574036
0.574646
0.574036
0.574341
0.575256
0.575562
0.574646
0.575256
0.575256
0.575256
0.575256
0.574646
0.575256
0.575256
0.574951
0.574036
0.575562
0.575562
0.575256
0.575256
0.576477
0.575562
0.576477
0.576782
0.577087
0.577087
0.577698
0.578003
0.578308
0.578003
0.578308
0.578003
0.579224
0.579224
0.579529
0.579529
0.579834
0.579834
0.579834
0.579529
0.580444
0.581055
0.580444
0.58075
0.58136
0.581055
0.58136
0.58136
0.58136
0.582886
0.582275
0.582581
0.582581
0.582275
0.582886
0.582886
0.582886
0.583191
0.583496
0.582886
0.583801
0.583801
0.583801
0.584412
0.585022
0.584412
0.583801
0.584412
0.584106
0.584412
0.584717
0.584412
0.584717
0.584106
0.584412
0.584106
0.583801
0.585022
0.584717
0.584717
0.584106
0.584717
0.584106
0.583801
0.583496
0.583801
0.583801
0.584106
0.583191
0.582886
0.582581
0.582275
0.58197
0.58197
0.581665
0.58075
0.581055
0.580444
0.580139
0.580139
0.579529
0.579529
0.579529
0.578613
0.578613
0.578003
0.577698
0.577393
0.577393
0.576172
0.576172
0.575256
0.57373
0.574646
0.574341
0.574036
0.572205
0.572815
0.571594
0.569763
0.570068
0.569458
0.568542
0.567932
0.566711
0.567627
0.566406
0.565491
0.565491
0.564575
0.563965
0.562439
0.561523
0.560608
0.561218
0.560303
0.559998
0.559998
0.558777
0.558472
0.557556
0.556946
0.556641
0.556335
0.55603
0.555725
0.555115
0.554199
0.554199
0.553284
0.553284
0.552673
0.552063
0.551758
0.551147
0.550232
0.549927
0.549927
0.549011
0.549316
0.549011
0.548401
0.54718
0.54718
0.54657
0.546265
0.546875
0.545654
0.545959
0.545959
0.545654
0.544434
0.545044
0.543213
0.543823
0.543213
0.543213
0.543213
0.542297
0.542603
0.541992
0.541382
0.541077
0.541077
0.540466
0.539856
0.540161
0.539246
0.53894
0.538635
0.538025
0.537415
0.537109
0.536804
0.537109
0.535583
0.535889
0.535278
0.534973
0.534363
0.534363
0.534363
0.533142
0.533142
0.532227
0.532532
0.532227
0.531311
0.531006
0.530396
0.529785
0.52948
0.529785
0.528564
0.528564
0.527344
0.527954
0.527344
0.526733
0.526123
0.524902
0.525208
0.524902
0.524292
0.523987
0.523682
0.523682
0.522156
0.522766
0.522156
0.522766
0.521545
0.521545
0.52063
0.520325
0.52002
0.519714
0.52002
0.52002
0.519409
0.519409
0.519104
0.519714
0.519104
0.519409
0.519104
0.518494
0.519104
0.519409
0.518188
0.518188
0.517883
0.519409
0.519104
0.518494
0.517883
0.517578
0.517578
0.517273
0.516357
0.517273
0.517273
0.516968
0.516357
0.516357
0.516052
0.516357
0.516357
0.516357
0.515747
0.515442
0.515442
0.515442
0.514526
0.515137
0.514832
0.514526
0.513916
0.513611
0.513611
0.513306
0.513306
0.513611
0.513306
0.512695
0.512695
0.51239
0.512695
0.512085
0.51239
0.51178
0.511169
0.511169
0.511169
0.510559
0.510559
0.510254
0.509949
0.510254
0.510559
0.510254
0.509949
0.509949
0.509644
0.509644
0.509644
0.509033
0.509644
0.509033
0.508728
0.508118
0.509033
0.507812
0.507507
0.507507
0.508118
0.508118
0.507507
0.507202
0.506897
0.506287
0.506592
0.507202
0.506592
0.506897
0.507202
0.507202
0.506287
0.505981
0.505676
0.505676
0.505371
0.504761
0.505066
0.504456
0.503845
0.50415
0.503235
0.50354
0.50354
0.503235
0.503235
0.50293
0.503235
0.503235
0.501709
0.502625
0.502319
0.502014
0.501404
0.501404
0.500793
0.500793
0.501404
0.500183
0.500793
0.500183
0.499573
0.498962
0.499573
0.499268
0.499268
0.498352
0.498962
0.498962
0.498657
0.498047
0.497437
0.498047
0.498047
0.498047
0.497742
0.497131
0.497131
0.496521
0.496521
0.496521
0.496216
0.496521
0.496216
0.495911
0.496521
0.496521
0.496216
0.496216
0.496216
0.496521
0.496216
0.496216
0.496521
0.496826
0.495911
0.495911
0.495911
0.496216
0.496216
0.495605
0.495605
0.495605
0.495605
0.495605
0.4953
0.4953
0.494995
0.4953
0.4953
0.495911
0.495605
0.49469
0.495605
0.494385
0.494385
0.49408
0.493774
0.493774
0.493164
0.493469
0.493469
0.492554
0.493469
0.493164
0.493164
0.492249
0.493164
0.492554
0.493469
0.491638
0.492249
0.492249
0.492249
0.491943
0.491638
0.491943
0.491638
0.492249
0.491638
0.491943
0.492249
0.491333
0.491333
0.491638
0.491638
0.491028
0.491638
0.491638
0.490723
0.491333
0.491028
0.491943
0.491943
0.491028
0.491943
0.492249
0.491943
0.492249
0.491943
0.491943
0.492554
0.492554
0.492249
0.492859
0.493469
0.493469
0.492554
0.493774
0.493469
0.494385
0.49469
0.494995
0.49408
0.494385
0.494385
0.49408
0.493774
0.494385
0.494385
0.494385
0.49408
0.49408
0.494995
0.493774
0.493774
0.493774
0.494385
0.494385
0.493774
0.494385
0.494385
0.493774
0.493774
0.493469
0.493164
0.492859
0.493164
0.493164
0.492859
0.492249
0.491943
0.491943
0.492249
0.492554
0.492249
0.491943
0.491638
0.490723
0.491943
0.491028
0.491333
0.491333
0.490417
0.491028
0.489807
0.490417
0.489502
0.489807
0.489502
0.489502
0.488892
0.489502
0.489197
0.489197
0.488892
0.488892
0.488892
0.487671
0.488281
0.487976
0.487671
0.487976
0.487366
0.487366
0.487061
0.486755
0.486755
0.486755
0.48584
0.486145
0.484924
0.484924
0.484619
0.484314
0.484009
0.484009
0.484314
0.483398
0.484009
0.483398
0.483398
0.483093
0.482483
0.482483
0.481873
0.481262
0.481262
0.481567
0.480957
0.480957
0.480347
0.479736
0.480652
0.480652
0.480347
0.479736
0.479431
0.479736
0.480042
0.479736
0.479431
0.480042
0.479126
0.480042
0.480042
0.479431
0.479736
0.480042
0.480042
0.480042
0.480042
0.479431
0.481567
0.480957
0.480652
0.480652
0.481873
0.481567
0.481873
0.483093
0.482483
0.483704
0.483704
0.484314
0.484924
0.484619
0.485229
0.48584
0.48645
0.487061
0.487366
0.488281
0.488586
0.490112
0.491028
0.491638
0.493469
0.494385
0.49469
0.496521
0.497742
0.498962
0.500183
0.501709
0.502625
0.503845
0.505371
0.506897
0.508423
0.510864
0.51178
0.513
0.515442
0.516663
0.518799
0.519409
0.522156
0.524292
0.526123
0.528564
0.52948
0.531921
0.533142
0.535278
0.537415
0.539246
0.541382
0.543823
0.545349
0.548096
0.549927
0.551758
0.55481
0.556335
0.557861
0.561218
0.562744
0.565186
0.567932
0.569458
0.571594
0.574646
0.575867
0.578003
0.58075
0.582886
0.584412
0.586548
0.588684
0.590515
0.592346
0.594482
0.596924
0.59845
0.600586
0.602722
0.604553
0.606079
0.608215
0.608826
0.611572
0.613098
0.614014
0.61615
0.617371
0.619202
0.620728
0.621643
0.622864
0.624084
0.62561
0.626526
0.628052
0.628662
0.629883
0.630493
0.631714
0.63324
0.63446
0.635071
0.635986
0.636902
0.637817
0.638428
0.637817
0.639648
0.640259
0.640564
0.640869
0.640564
0.641785
0.642395
0.642395
0.642395
0.6427
0.64209
0.642395
0.643005
0.6427
0.642395
0.643005
0.643005
0.64209
0.6427
0.642395
0.641785
0.641479
0.641479
0.640869
0.640564
0.639954
0.639343
0.639954
0.639038
0.638733
0.638733
0.638733
0.637817
0.637207
0.637817
0.637512
0.637207
0.636597
0.635986
0.635376
0.635376
0.635681
0.634766
0.634155
0.633545
0.63324
0.632629
0.632324
0.631409
0.631409
0.631714
0.630798
0.630798
0.630188
0.629578
0.629883
0.628967
0.629272
0.629272
0.628662
0.628357
0.627747
0.627441
0.627441
0.627747
0.627747
0.626831
0.626831
0.626831
0.626831
0.626526
0.62561
0.62561
0.625305
0.625305
0.624695
0.624695
0.623779
0.624084
0.623169
0.623779
0.623169
0.622864
0.622864
0.622864
0.622253
0.622864
0.622253
0.622253
0.621643
0.621643
0.621948
0.621948
0.621338
0.621338
0.621338
0.621033
0.620728
0.620728
0.620117
0.620117
0.619507
0.620117
0.619202
0.619202
0.619202
0.619202
0.619507
0.619507
0.618591
0.618896
0.618591
0.619507
0.619507
0.619507
0.619507
0.619812
0.619202
0.619202
0.618896
0.618896
0.618896
0.618896
0.619507
0.618591
0.618896
0.618896
0.618896
0.619507
0.619812
0.619202
0.618896
0.619812
0.620117
0.620117
0.620117
0.620728
0.620728
0.619812
0.620117
0.620422
0.620728
0.620422
0.620422
0.620728
0.620117
0.620728
0.620117
0.620728
0.619812
0.619202
0.620422
0.619507
0.618591
0.619202
0.618286
0.617981
0.618286
0.617676
0.617371
0.617065
0.61615
0.615234
0.61554
0.614929
0.614014
0.614319
0.613403
0.613403
0.612793
0.612793
0.612183
0.612183
0.611267
0.611572
0.609436
0.610352
0.609741
0.609131
0.609436
0.608215
0.608521
0.606995
0.606995
0.606384
0.606079
0.606079
0.604553
0.604553
0.603333
0.603943
0.603333
0.603027
0.603027
0.603333
0.602417
0.601807
0.602417
0.601501
0.601501
0.600891
0.601807
0.600891
0.600891
0.600281
0.59967
0.599976
0.599365
0.59906
0.59906
0.598755
0.59906
0.599365
0.59906
0.598755
0.598145
0.598755
0.597839
0.598755
0.598145
0.597839
0.597229
0.597534
0.597534
0.597839
0.596924
0.596619
0.596313
0.596008
0.595703
0.596008
0.596313
0.595398
0.596008
0.596008
0.596619
0.595703
0.596313
0.596008
0.595703
0.596008
0.595093
0.595093
0.595398
0.595093
0.595093
0.594482
0.594788
0.595093
0.594788
0.594788
0.594788
0.594177
0.593872
0.594177
0.594788
0.594788
0.594177
0.593262
0.593872
0.593262
0.593262
0.593262
0.592346
0.592957
0.592651
0.592041
0.592041
0.591125
0.591125
0.591431
0.591431
0.591125
0.591125
0.59021
0.589905
0.589294
0.589905
0.589905
0.588989
0.588989
0.588989
0.588989
0.588684
0.588074
0.588684
0.587769
0.587769
0.587158
0.587769
0.586853
0.586853
0.585938
0.586853
0.585632
0.585022
0.584412
0.584412
0.583801
0.583496
0.583801
0.582275
0.582886
0.58197
0.582275
0.58136
0.581055
0.581055
0.580139
0.580139
0.580444
0.579529
0.579529
0.578918
0.578308
0.578613
0.577698
0.577393
0.576782
0.576172
0.575867
0.574951
0.574341
0.57373
0.573425
0.573425
0.57251
0.571289
0.571899
0.570374
0.569763
0.569458
0.568237
0.568848
0.567627
0.566711
0.566406
0.565491
0.56488
0.56488
0.56366
0.563049
0.562439
0.562439
0.560608
0.560608
0.560608
0.559998
0.559387
0.559082
0.558167
0.557861
0.557556
0.556641
0.556641
0.555725
0.55542
0.55481
0.55481
0.553894
0.552979
0.553284
0.552673
0.552063
0.550842
0.550842
0.550842
0.550842
0.550232
0.549011
0.550232
0.548401
0.548401
0.548706
0.547791
0.547485
0.54718
0.546875
0.54718
0.546265
0.545654
0.545654
0.545044
0.544434
0.543823
0.544128
0.543518
0.542603
0.542297
0.541382
0.541992
0.540771
0.540771
0.540466
0.539856
0.539551
0.53894
0.53894
0.53833
0.53772
0.53772
0.536804
0.536804
0.535889
0.535583
0.535583
0.534363
0.534058
0.534363
0.533142
0.533752
0.532837
0.531311
0.531921
0.531921
0.531616
0.531311
0.531006
0.531006
0.529785
0.52887
0.52887
0.529175
0.528259
0.528259
0.527954
0.527344
0.527344
0.526428
0.526733
0.525818
0.525513
0.525513
0.524902
0.523376
0.523987
0.524292
0.523682
0.522461
0.522461
0.521851
0.521545
0.520935
0.52002
0.519714
0.519409
0.52002
0.518494
0.518494
0.518188
0.517883
0.517578
0.516968
0.517273
0.515747
0.515747
0.514526
0.513916
0.513916
0.513306
0.513
0.512085
0.512085
0.511169
0.511475
0.510864
0.510864
0.510864
0.510254
0.509644
0.509338
0.509033
0.508728
0.508423
0.509033
0.508118
0.508118
0.507202
0.507202
0.507202
0.506592
0.505676
0.505676
0.505676
0.505066
0.504456
0.504761
0.504761
0.504761
0.50354
0.503845
0.50354
0.50354
0.503235
0.503235
0.503235
0.50293
0.50293
0.502319
0.502014
0.502319
0.500793
0.502014
0.500793
0.501099
0.500793
0.500488
0.500183
0.500488
0.500183
0.499878
0.498962
0.499573
0.499268
0.498352
0.498352
0.498047
0.497131
0.497131
0.496826
0.496826
0.496216
0.495605
0.495911
0.4953
0.4953
0.49469
0.494385
0.493774
0.493774
0.493469
0.493164
0.493774
0.492249
0.491638
0.491638
0.492554
0.491638
0.491333
0.491333
0.490723
0.490723
0.490417
0.490112
0.489502
0.489502
0.489807
0.489807
0.488281
0.488586
0.488892
0.488586
0.488281
0.488586
0.488586
0.487671
0.487671
0.487366
0.486755
0.486755
0.48645
0.48645
0.487061
0.48645
0.485535
0.485535
0.486145
0.48584
0.484924
0.484314
0.485229
0.484619
0.484619
0.484619
0.483704
0.483704
0.483398
0.483398
0.483398
0.482788
0.482178
0.482178
0.482178
0.481873
0.481262
0.481567
0.481262
0.481567
0.481262
0.480652
0.480652
0.480347
0.480347
0.480347
0.480957
0.480652
0.479736
0.480957
0.479736
0.479736
0.478821
0.479126
0.478821
0.478516
0.478516
0.477905
0.477905
0.477905
0.4776
0.4776
0.47821
0.47699
0.4776
0.47699
0.4776
0.476685
0.477295
0.477295
0.4776
0.477295
0.476685
0.476685
0.47699
0.477295
0.47699
0.47699
0.47699
0.477295
0.477295
0.476685
0.477295
0.477295
0.47699
0.47699
0.477295
0.477295
0.476379
0.476685
0.476379
0.47699
0.476379
0.476685
0.476379
0.475769
0.47699
0.475159
0.476379
0.476074
0.475464
0.475464
0.474854
0.475464
0.475464
0.474548
0.475159
0.475159
0.475159
0.474243
0.473938
0.473328
0.473938
0.474243
0.473633
0.473022
0.473633
0.473938
0.473328
0.473938
0.473022
0.473328
0.473022
0.472717
0.473938
0.473938
0.474243
0.473633
0.473633
0.474548
0.473633
0.473938
0.473633
0.473633
0.473938
0.473633
0.473633
0.474548
0.473022
0.473328
0.473328
0.472717
0.474243
0.473022
0.473938
0.472717
0.472412
0.472717
0.472412
0.471802
0.473022
0.471802
0.471802
0.472412
0.472107
0.471191
0.471497
0.470886
0.470886
0.471802
0.471497
0.471191
0.471191
0.470886
0.470886
0.470276
0.470581
0.469971
0.46936
0.469666
0.46936
0.46875
0.468445
0.468445
0.467834
0.46875
0.46814
0.46814
0.46875
0.466614
0.467529
0.467224
0.467224
0.467529
0.467224
0.466309
0.465698
0.466614
0.466003
0.466003
0.465393
0.465698
0.465088
0.465393
0.465393
0.464783
0.464172
0.464783
0.464172
0.464172
0.464172
0.463867
0.464478
0.463562
0.463257
0.463257
0.462952
0.463257
0.463562
0.463257
0.463257
0.462646
0.462952
0.462646
0.462952
0.462646
0.462646
0.462952
0.463257
0.463562
0.462952
0.462952
0.463257
0.463257
0.463867
0.463867
0.464172
0.463562
0.463867
0.464172
0.463257
0.463867
0.463257
0.463867
0.463257
0.463562
0.463257
0.463562
0.463562
0.463562
0.463257
0.462646
0.463257
0.464172
0.463562
0.463562
0.463562
0.463562
0.463867
0.464172
0.463257
0.463867
0.462952
0.463562
0.463257
0.462341
0.463257
0.462952
0.462036
0.462036
0.462646
0.462646
0.462036
0.461426
0.462341
0.462036
0.461731
0.461426
0.461426
0.461731
0.461121
0.461731
0.461731
0.461121
0.461426
0.461121
0.461426
0.461121
0.461426
0.460815
0.460815
0.461121
0.461426
0.461426
0.461426
0.461426
0.461731
0.461426
0.461121
0.460815
0.461426
0.461426
0.461121
0.460815
0.461731
0.461426
0.460815
0.461426
0.461121
0.461426
0.461731
0.461731
0.461731
0.461426
0.461121
0.462036
0.461121
0.461426
0.461121
0.461121
0.460815
0.461426
0.46051
0.460815
0.460815
0.460815
0.460815
0.460205
0.46051
0.46051
0.46051
0.461426
0.46051
0.461426
0.462036
0.462341
0.462341
0.463257
0.462952
0.463867
0.464172
0.464478
0.464478
0.465088
0.466003
0.466614
0.467529
0.467529
0.46936
0.470276
0.470581
0.472412
0.473633
0.474243
0.476074
0.476685
0.47821
0.480042
0.481567
0.483398
0.484924
0.48584
0.487366
0.489807
0.490723
0.493469
0.494995
0.496826
0.498657
0.499878
0.502014
0.504456
0.506287
0.508118
0.510254
0.512085
0.514526
0.516052
0.518494
0.520325
0.522766
0.525513
0.526428
0.529175
0.531921
0.533752
0.536194
0.53833
0.541382
0.543518
0.545959
0.548096
0.549622
0.552979
0.555115
0.557556
0.559692
0.561523
0.563965
0.566406
0.568542
0.570679
0.57312
0.574951
0.577087
0.579529
0.581055
0.582886
0.585632
0.587158
0.589294
0.59082
0.593262
0.595093
0.597229
0.598755
0.600586
0.601807
0.604248
0.606079
0.608215
0.609436
0.610962
0.612183
0.614014
0.615234
0.61615
0.617981
0.619202
0.620117
0.621033
0.622559
0.623169
0.624695
0.625916
0.626831
0.627441
0.627747
0.628662
0.629883
0.630493
0.630493
0.631104
0.632019
0.63324
0.632629
0.633545
0.634155
0.634766
0.634766
0.635071
0.635681
0.635986
0.635376
0.635376
0.635681
0.635681
0.635681
0.635071
0.635986
0.635986
0.635986
0.635681
0.635986
0.635681
0.636292
0.635071
0.635071
0.635376
0.635071
0.635376
0.635376
0.635376
0.635071
0.63446
0.63385
0.634155
0.63446
0.633545
0.632629
0.632629
0.632324
0.632324
0.631104
0.631104
0.630188
0.630188
0.630493
0.629883
0.629883
0.628967
0.628967
0.628662
0.627441
0.627136
0.626221
0.626221
0.626526
0.625916
0.625916
0.625
0.624695
0.623474
0.623474
0.622864
0.623169
0.622253
0.621948
0.620422
0.621643
0.619812
0.620422
0.619507
0.619507
0.619202
0.618896
0.618591
0.619202
0.618286
0.618286
0.617371
0.617371
0.616455
0.616455
0.61676
0.61615
0.616455
0.615234
0.615234
0.615845
0.61615
0.61615
0.61615
0.61615
0.61554
0.61615
0.61554
0.614319
0.615845
0.614624
0.61554
0.614929
0.614319
0.614929
0.614624
0.614929
0.614929
0.614624
0.614929
0.615845
0.615234
0.61554
0.61554
0.615845
0.61554
0.61554
0.615845
0.615845
0.617065
0.61676
0.616455
0.617065
0.616455
0.617371
0.617371
0.617065
0.617676
0.617065
0.617676
0.618286
0.617981
0.617676
0.617981
0.618591
0.618896
0.618896
0.617981
0.618591
0.619202
0.619202
0.618896
0.618286
0.618591
0.618896
0.617981
0.618591
0.618896
0.617981
0.617676
0.617676
0.617676
0.617676
0.617676
0.617371
0.617676
0.61676
0.617371
0.61615
0.615845
0.61615
0.615234
0.615845
0.61554
0.614014
0.614319
0.613708
0.613403
0.613403
0.613403
0.612793
0.612488
0.612183
0.611877
0.611267
0.610962
0.610657
0.610657
0.610046
0.610046
0.608521
0.608826
0.609741
0.608215
0.608215
0.607605
0.60791
0.606384
0.606689
0.605469
0.606079
0.606079
0.605469
0.604858
0.604553
0.604553
0.604248
0.604248
0.603638
0.603027
0.602417
0.601807
0.601807
0.601501
0.600891
0.600586
0.600586
0.599976
0.59967
0.59967
0.59967
0.59967
0.59906
0.59845
0.598755
0.597839
0.597839
0.597839
0.597839
0.597534
0.597229
0.596313
0.596008
0.596008
0.596008
0.595398
0.596008
0.594482
0.595093
0.594482
0.594177
0.593872
0.593567
0.592651
0.593262
0.593567
0.593872
0.593262
0.592651
0.593262
0.592651
0.592651
0.592651
0.592957
0.592346
0.592651
0.592957
0.592651
0.592346
0.592346
0.592957
0.592041
0.592041
0.592041
0.592041
0.592346
0.592041
0.591736
0.592041
0.592346
0.592041
0.591125
0.59082
0.591125
0.591125
0.591125
0.59021
0.59021
0.59021
0.589905
0.5896
0.588684
0.589294
0.588684
0.588989
0.588989
0.589294
0.588684
0.588989
0.588684
0.588074
0.587463
0.587463
0.587769
0.587158
0.586853
0.587158
0.586243
0.585938
0.585938
0.585327
0.585022
0.584717
0.584412
0.584106
0.583496
0.583191
0.583496
0.582581
0.582581
0.582886
0.582581
0.582275
0.58197
0.58197
0.581055
0.58136
0.58136
0.581055
0.581055
0.579834
0.580139
0.579529
0.579224
0.579224
0.579224
0.578308
0.578613
0.577698
0.577393
0.576477
0.576172
0.575562
0.575562
0.574341
0.57373
0.57312
0.572815
0.572815
0.571899
0.571289
0.571289
0.570679
0.569763
0.569763
0.568542
0.568542
0.567322
0.567322
0.566406
0.566406
0.565186
0.563965
0.56427
0.563049
0.561218
0.561829
0.561218
0.560608
0.560303
0.559387
0.559082
0.558167
0.557861
0.556946
0.55603
0.556335
0.55542
0.554199
0.553894
0.553284
0.552979
0.552979
0.552063
0.551147
0.550842
0.549927
0.549622
0.548706
0.548096
0.547485
0.546875
0.545959
0.545349
0.544739
0.544739
0.543213
0.542908
0.542603
0.541382
0.541077
0.539856
0.539246
0.538635
0.538635
0.537109
0.535889
0.536194
0.535583
0.534363
0.534058
0.534668
0.533752
0.533142
0.532532
0.532227
0.531311
0.530701
0.530701
0.53009
0.529785
0.529175
0.528564
0.527954
0.527649
0.527039
0.527344
0.526428
0.525208
0.524597
0.524902
0.525208
0.523682
0.523376
0.522766
0.523071
0.522461
0.521851
0.522461
0.52124
0.52124
0.521545
0.52002
0.520325
0.518799
0.518799
0.518799
0.518188
0.517273
0.517883
0.516968
0.516052
0.515747
0.515137
0.514221
0.513916
0.513916
0.513
0.51239
0.51178
0.512085
0.510559
0.510559
0.510254
0.509949
0.510254
0.509033
0.508423
0.508423
0.507202
0.507507
0.506897
0.506897
0.506592
0.506592
0.506287
0.505981
0.506287
0.506287
0.505676
0.505371
0.505066
0.505066
0.505066
0.504761
0.504456
0.503235
0.504456
0.503845
0.50293
0.50293
0.50293
0.502319
0.50293
0.50293
0.502014
0.501709
0.501404
0.502319
0.501404
0.501099
0.500488
0.501099
0.500793
0.500793
0.499878
0.500183
0.500183
0.499878
0.500183
0.498962
0.499573
0.498962
0.498657
0.498657
0.498962
0.497742
0.498657
0.497437
0.497437
0.497131
0.497131
0.496826
0.496216
0.496826
0.496216
0.495911
0.495911
0.495911
0.49469
0.494385
0.494995
0.494385
0.49408
0.49408
0.493774
0.493164
0.493164
0.492859
0.492859
0.492554
0.491943
0.491028
0.491638
0.491028
0.491333
0.491028
0.491028
0.491028
0.490723
0.491028
0.490723
0.490417
0.490417
0.490417
0.489807
0.489807
0.489807
0.489502
0.489502
0.489197
0.488586
0.487976
0.487671
0.487976
0.486145
0.486755
0.48645
0.486145
0.48584
0.48584
0.485229
0.485229
0.485229
0.484619
0.484924
0.485229
0.484924
0.484619
0.484924
0.484314
0.484009
0.484314
0.483704
0.483398
0.483398
0.483398
0.482483
0.482788
0.482788
0.482178
0.482178
0.482178
0.482178
0.481873
0.482178
0.480957
0.480652
0.481262
0.480652
0.480652
0.480347
0.479736
0.479126
0.478821
0.478516
0.479431
0.478516
0.478516
0.477905
0.47699
0.477905
0.477295
0.47821
0.47699
0.47699
0.4776
0.47699
0.477295
0.476379
0.47699
0.475769
0.476379
0.475464
0.476074
0.475464
0.475769
0.475159
0.475159
0.474548
0.474548
0.474548
0.474548
0.474854
0.474548
0.475159
0.475159
0.475464
0.476074
0.476074
0.475159
0.475464
0.475159
0.474854
0.475769
0.475159
0.475769
0.474854
0.475159
0.475159
0.474854
0.474548
0.474854
0.474854
0.474854
0.474854
0.474548
0.474548
0.473938
0.473938
0.473633
0.473633
0.473022
0.473022
0.473022
0.472412
0.472412
0.471497
0.471802
0.470886
0.470886
0.470581
0.470276
0.470886
0.469971
0.46936
0.470276
0.46936
0.46936
0.46875
0.46875
0.468445
0.467529
0.46814
0.467834
0.467224
0.467529
0.466614
0.466614
0.466309
0.465698
0.465088
0.464783
0.465393
0.464172
0.464478
0.464478
0.463867
0.462952
0.463257
0.463562
0.463257
0.462341
0.461731
0.462036
0.461731
0.461426
0.461121
0.461121
0.46051
0.460815
0.4599
0.460205
0.4599
0.459595
0.45929
0.45929
0.45929
0.459595
0.45929
0.458984
0.458984
0.45929
0.458069
0.458069
0.458069
0.458984
0.458374
0.458374
0.457764
0.458069
0.457764
0.457458
0.458069
0.457764
0.457764
0.458069
0.458069
0.458069
0.457764
0.457153
0.457764
0.457153
0.457153
0.456848
0.456848
0.456238
0.456848
0.456543
0.456848
0.455627
0.456238
0.455017
0.455933
0.455627
0.455933
0.455627
0.455627
0.454712
0.454712
0.455322
0.455017
0.455322
0.455017
0.455322
0.455627
0.455627
0.454407
0.454407
0.455322
0.455322
0.455322
0.455627
0.455627
0.455322
0.454712
0.454407
0.455322
0.455017
0.455322
0.454102
0.454712
0.455017
0.455017
0.455017
0.454407
0.455322
0.454712
0.453796
0.453796
0.454102
0.453491
0.453491
0.452576
0.453796
0.453186
0.453186
0.453186
0.452881
0.453186
0.452576
0.452271
0.45166
0.452576
0.452271
0.451965
0.452576
0.45166
0.452271
0.451965
0.45166
0.452271
0.451965
0.451355
0.451355
0.45166
0.452271
0.451965
0.45166
0.451965
0.452271
0.452271
0.453186
0.452881
0.452271
0.452576
0.452271
0.453491
0.453186
0.452881
0.453186
0.452576
0.453491
0.453796
0.453796
0.453491
0.453491
0.454102
0.454102
0.454407
0.454102
0.454102
0.454102
0.454102
0.454712
0.454102
0.454407
0.454407
0.454712
0.455017
0.455322
0.455017
0.455017
0.455017
0.455933
0.455933
0.456238
0.455627
0.456238
0.455017
0.456543
0.456238
0.456543
0.456238
0.455933
0.455322
0.456543
0.455627
0.455322
0.456238
0.455627
0.456238
0.455933
0.456238
0.455933
0.455933
0.456238
0.456543
0.456543
0.456848
0.457153
0.455933
0.456543
0.456238
0.456848
0.456238
0.455322
0.455933
0.455627
0.455322
0.455322
0.455017
0.455322
0.455627
0.455933
0.455017
0.455322
0.455322
0.455017
0.455627
0.455627
0.455322
0.454712
0.455627
0.455627
0.455933
0.455017
0.455017
0.454407
0.455017
0.455627
0.456238
0.455933
0.456848
0.456238
0.457153
0.457153
0.456238
0.457764
0.458069
0.457458
0.458069
0.457458
0.458069
0.458374
0.458069
0.458069
0.458374
0.458679
0.458984
0.458679
0.458679
0.458679
0.45929
0.458374
0.45929
0.45929
0.45929
0.459595
0.45929
0.458984
0.458679
0.459595
0.458679
0.458374
0.458069
0.458679
0.458069
0.458069
0.457764
0.458984
0.458374
0.458374
0.458374
0.458069
0.458679
0.458374
0.458374
0.458679
0.458679
0.458984
0.458374
0.458069
0.457764
0.458374
0.457764
0.458679
0.458069
0.457764
0.458374
0.458374
0.458679
0.458374
0.458069
0.458679
0.459595
0.45929
0.458679
0.45929
0.459595
0.458984
0.460205
0.459595
0.4599
0.460205
0.460815
0.460815
0.461121
0.460815
0.461426
0.461731
0.461426
0.461731
0.462646
0.462952
0.462952
0.464172
0.464172
0.464783
0.465088
0.466919
0.467224
0.466614
0.46814
0.468445
0.46875
0.469971
0.470886
0.471497
0.471802
0.472717
0.474854
0.476074
0.47699
0.478821
0.479431
0.480347
0.481262
0.483093
0.484619
0.486145
0.487671
0.489197
0.490723
0.492249
0.49408
0.494995
0.496826
0.498962
0.500488
0.502014
0.505066
0.506897
0.509338
0.511169
0.513
0.515442
0.517273
0.519714
0.522766
0.523987
0.526733
0.52948
0.531311
0.534058
0.536194
0.538025
0.540466
0.543213
0.545654
0.548096
0.549622
0.552979
0.555115
0.557556
0.559387
0.561829
0.56427
0.567017
0.568542
0.570984
0.572815
0.574951
0.576782
0.578613
0.580444
0.582581
0.584717
0.586548
0.588379
0.590515
0.592041
0.593872
0.595703
0.598145
0.599976
0.601196
0.602417
0.604553
0.606079
0.607605
0.609436
0.610962
0.612488
0.613708
0.614929
0.61615
0.618286
0.619507
0.620728
0.621948
0.622864
0.624084
0.624695
0.625916
0.626831
0.628357
0.628662
0.629578
0.630798
0.631409
0.632324
0.632935
0.63385
0.63385
0.634766
0.635376
0.636292
0.636292
0.636902
0.637207
0.638123
0.638733
0.639648
0.639648
0.639343
0.640564
0.640564
0.640259
0.640564
0.640259
0.640869
0.641174
0.640869
0.641174
0.641479
0.640564
0.640259
0.640564
0.639954
0.639954
0.639343
0.639648
0.639038
0.639648
0.639343
0.639038
0.638733
0.638733
0.638428
0.638733
0.638428
0.638123
0.637512
0.637207
0.636597
0.636292
0.635986
0.635376
0.63446
0.634155
0.63446
0.63385
0.634155
0.632935
0.632019
0.631409
0.631104
0.630798
0.631104
0.629883
0.629272
0.628357
0.628052
0.626831
0.626526
0.626526
0.62561
0.625
0.625
0.625305
0.624084
0.624695
0.624084
0.623779
0.623779
0.622864
0.622559
0.622864
0.621643
0.621948
0.621033
0.621033
0.620422
0.620728
0.620422
0.620117
0.619812
0.617981
0.618896
0.618896
0.618591
0.618896
0.618286
0.618591
0.618896
0.618591
0.618896
0.618591
0.618591
0.619812
0.617981
0.618591
0.617981
0.617676
0.617371
0.617371
0.617371
0.617371
0.61676
0.617676
0.617371
0.617981
0.617371
0.617065
0.617371
0.617981
0.617676
0.617065
0.617371
0.617676
0.617065
0.617371
0.61676
0.61676
0.617065
0.616455
0.617676
0.617371
0.617371
0.61676
0.617981
0.617371
0.617371
0.617065
0.617676
0.617065
0.617676
0.617065
0.617065
0.61615
0.61615
0.61676
0.615845
0.61615
0.61554
0.61554
0.615234
0.615845
0.61554
0.614929
0.61554
0.615845
0.61554
0.61554
0.615845
0.615234
0.614624
0.614624
0.614014
0.614014
0.614319
0.613403
0.613708
0.613403
0.612793
0.612488
0.612793
0.612183
0.611572
0.610657
0.610046
0.610657
0.610962
0.610352
0.609131
0.610046
0.609436
0.608521
0.609131
0.608826
0.60791
0.6073
0.6073
0.606384
0.6073
0.6073
0.606689
0.605469
0.604858
0.605774
0.606079
0.605469
0.605164
0.605164
0.605469
0.604553
0.604553
0.604553
0.604858
0.604553
0.603333
0.604248
0.603943
0.604553
0.603638
0.603333
0.603027
0.603638
0.603027
0.603333
0.603027
0.602722
0.603027
0.602722
0.602417
0.603333
0.602112
0.602112
0.601501
0.601501
0.600891
0.601196
0.601196
0.600891
0.600891
0.600891
0.600891
0.600586
0.600891
0.599976
0.600281
0.600586
0.600891
0.600586
0.600891
0.600586
0.601807
0.600281
0.600891
0.600586
0.600281
0.600281
0.600586
0.600891
0.600281
0.600281
0.600891
0.600891
0.600891
0.601196
0.601807
0.601196
0.601196
0.601807
0.602112
0.601196
0.601196
0.601501
0.600891
0.600891
0.600891
0.600281
0.600281
0.601196
0.59967
0.600586
0.59967
0.599976
0.59967
0.599365
0.599365
0.599976
0.598755
0.59845
0.59845
0.59906
0.598755
0.59845
0.59906
0.598755
0.597839
0.59845
0.597839
0.598145
0.598145
0.598145
0.597229
0.597229
0.596619
0.597839
0.597839
0.597839
0.597229
0.596924
0.597229
0.597229
0.596924
0.596924
0.596008
0.595703
0.595703
0.596313
0.596008
0.595398
0.595093
0.594788
0.594788
0.595093
0.594177
0.593872
0.593872
0.593567
0.592957
0.593262
0.592957
0.592041
0.592651
0.593262
0.592041
0.59082
0.59082
0.59021
0.5896
0.5896
0.588989
0.588989
0.588379
0.588074
0.587769
0.587158
0.586243
0.586548
0.585022
0.585938
0.585022
0.584106
0.584412
0.583496
0.582275
0.58197
0.582581
0.581665
0.580139
0.579834
0.579529
0.579224
0.578613
0.578003
0.577393
0.576782
0.576477
0.576172
0.575256
0.574951
0.575256
0.574036
0.57312
0.57251
0.571594
0.571899
0.570679
0.569458
0.569763
0.569153
0.568848
0.567932
0.567017
0.567017
0.566101
0.565491
0.56427
0.56366
0.563354
0.562744
0.562744
0.561523
0.560913
0.560913
0.559692
0.559387
0.558472
0.558472
0.557556
0.556946
0.55603
0.55603
0.55542
0.555725
0.553894
0.554504
0.553894
0.553589
0.553284
0.552673
0.552368
0.552063
0.550842
0.550232
0.549927
0.548096
0.548096
0.548096
0.54718
0.54718
0.545654
0.545654
0.544434
0.544128
0.543823
0.543213
0.543213
0.542297
0.541382
0.541687
0.541077
0.540466
0.540466
0.539246
0.539551
0.539246
0.53833
0.538025
0.538025
0.53772
0.537109
0.536194
0.535889
0.536194
0.534973
0.535889
0.534973
0.534363
0.534058
0.533752
0.533752
0.532837
0.532532
0.531616
0.532227
0.531616
0.531616
0.530701
0.530396
0.529175
0.52887
0.529175
0.52887
0.528259
0.527344
0.527954
0.526733
0.527039
0.526733
0.526123
0.525513
0.525818
0.524902
0.523682
0.523682
0.523682
0.523376
0.522766
0.522461
0.522766
0.522461
0.52124
0.521545
0.52124
0.520325
0.52063
0.519409
0.52002
0.52002
0.518799
0.519104
0.518494
0.517273
0.517578
0.516663
0.516663
0.516357
0.516052
0.516052
0.514221
0.514832
0.514832
0.514832
0.513916
0.513611
0.513916
0.512695
0.513
0.51239
0.513
0.51178
0.511475
0.511475
0.511169
0.511169
0.511169
0.510559
0.511169
0.510559
0.510559
0.509644
0.509949
0.509644
0.509644
0.510254
0.509644
0.508728
0.509033
0.509338
0.508423
0.508423
0.508728
0.509033
0.508423
0.509033
0.508423
0.507812
0.506897
0.507507
0.506897
0.506592
0.506897
0.506287
0.506592
0.505981
0.505371
0.506592
0.505676
0.505676
0.505981
0.506287
0.505676
0.506592
0.506287
0.505981
0.506287
0.506592
0.505981
0.505676
0.505676
0.505066
0.505066
0.504761
0.504456
0.504456
0.504761
0.503845
0.50415
0.503845
0.50354
0.50354
0.502319
0.50293
0.502014
0.501404
0.502014
0.500793
0.501099
0.500183
0.500488
0.499878
0.499573
0.499573
0.499878
0.499573
0.499573
0.498962
0.498962
0.498962
0.498352
0.498352
0.498962
0.498352
0.498657
0.498047
0.498657
0.498047
0.498047
0.498047
0.497742
0.496521
0.496521
0.496521
0.496216
0.496521
0.496521
0.495911
0.495911
0.496521
0.495911
0.4953
0.4953
0.495605
0.494385
0.4953
0.49469
0.49408
0.49469
0.49408
0.49408
0.493469
0.493164
0.492554
0.493164
0.492859
0.492554
0.491943
0.491638
0.492249
0.491638
0.492249
0.491638
0.491333
0.491333
0.491333
0.491028
0.490723
0.490112
0.490417
0.490112
0.489197
0.489502
0.488586
0.488586
0.488281
0.488281
0.487671
0.489197
0.487671
0.487976
0.487976
0.487671
0.487366
0.486145
0.486755
0.486145
0.486145
0.485535
0.485229
0.485229
0.485229
0.484924
0.485535
0.483704
0.483704
0.483704
0.483093
0.483704
0.483398
0.483398
0.483093
0.482788
0.482483
0.482788
0.482178
0.480957
0.482178
0.480957
0.481567
0.480957
0.480652
0.480652
0.480652
0.480042
0.480347
0.480652
0.480347
0.480652
0.479431
0.480347
0.480347
0.478821
0.479126
0.480042
0.478821
0.479431
0.478821
0.478821
0.47821
0.47821
0.47821
0.4776
0.47699
0.477295
0.477295
0.47699
0.476074
0.47699
0.476379
0.476379
0.475769
0.475464
0.474854
0.474854
0.474243
0.474243
0.473022
0.473328
0.472717
0.472107
0.472107
0.471191
0.471191
0.470886
0.470276
0.470276
0.470581
0.469666
0.46936
0.46936
0.469666
0.467834
0.46814
0.46814
0.467834
0.467529
0.468445
0.467224
0.467224
0.466003
0.465393
0.465698
0.465698
0.465698
0.465088
0.465393
0.464783
0.464478
0.464783
0.464783
0.464783
0.463867
0.464478
0.464478
0.464172
0.464478
0.463867
0.463257
0.463867
0.463257
0.463867
0.463257
0.462646
0.462952
0.462646
0.462646
0.462952
0.462036
0.462341
0.461731
0.461731
0.461426
0.462036
0.461426
0.461426
0.462036
0.461731
0.461121
0.461121
0.461121
0.46051
0.460815
0.46051
0.460815
0.460815
0.460205
0.460205
0.460205
0.46051
0.46051
0.460205
0.46051
0.460205
0.4599
0.45929
0.459595
0.458984
0.458984
0.458984
0.459595
0.459595
0.45929
0.458374
0.458374
0.459595
0.458374
0.458984
0.458984
0.458984
0.459595
0.459595
0.4599
0.45929
0.46051
0.45929
0.4599
0.460205
0.4599
0.460205
0.460815
0.46051
0.461121
0.461121
0.462036
0.462341
0.462341
0.463257
0.463257
0.464172
0.465088
0.465698
0.466309
0.467224
0.46814
0.46814
0.469055
0.470276
0.471191
0.472107
0.473328
0.473633
0.474854
0.476074
0.477295
0.479126
0.480652
0.480652
0.483093
0.484009
0.48584
0.487366
0.488586
0.490723
0.491943
0.493164
0.49469
0.496826
0.498047
0.499878
0.501709
0.50415
0.505676
0.506592
0.509644
0.511169
0.513916
0.516052
0.517883
0.52002
0.522766
0.525208
0.526733
0.52887
0.531311
0.534363
0.535889
0.538025
0.540771
0.543518
0.545044
0.547791
0.549927
0.552368
0.554199
0.556946
0.558167
0.560608
0.563049
0.565491
0.567932
0.570374
0.570984
0.573425
0.575256
0.577087
0.579224
0.581055
0.582581
0.583496
0.585632
0.587158
0.588684
0.59082
0.591125
0.593262
0.594177
0.595703
0.596924
0.597839
0.599365
0.600586
0.601501
0.601807
0.603027
0.603943
0.605469
0.606384
0.6073
0.60791
0.607605
0.608215
0.609741
0.610352
0.610657
0.611572
0.612183
0.612183
0.613403
0.613708
0.614319
0.614319
0.614319
0.615845
0.61615
0.61615
0.61615
0.61676
0.616455
0.61676
0.616455
0.617676
0.617676
0.617371
0.617065
0.617981
0.618591
0.618286
0.618286
0.618896
0.618896
0.618286
0.618896
0.618286
0.618896
0.617676
0.618591
0.618286
0.617676
0.617371
0.617065
0.616455
0.61676
0.61615
0.61615
0.615845
0.61554
0.61676
0.61554
0.615234
0.614929
0.614624
0.614319
0.613708
0.613403
0.613098
0.612793
0.612793
0.611877
0.611877
0.611572
0.611267
0.610657
0.610657
0.609741
0.609131
0.609741
0.609131
0.608826
0.608521
0.606995
0.607605
0.607605
0.6073
0.606995
0.606079
0.605774
0.605469
0.604858
0.604248
0.603943
0.603638
0.602722
0.602417
0.602722
0.602417
0.601501
0.601807
0.601807
0.601196
0.600281
0.600281
0.599976
0.600586
0.599365
0.599976
0.59967
0.599365
0.599365
0.599365
0.59845
0.598145
0.598145
0.598145
0.597534
0.598145
0.597839
0.597839
0.597534
0.596924
0.597229
0.596924
0.596313
0.596924
0.596619
0.595703
0.596008
0.595398
0.595398
0.595398
0.595398
0.595093
0.595398
0.594788
0.594177
0.594482
0.594177
0.594482
0.594177
0.594482
0.593567
0.593567
0.594788
0.593262
0.593262
0.593262
0.592651
0.592346
0.592041
0.592346
0.592041
0.591431
0.591431
0.59021
0.590515
0.59021
0.59021
0.589294
0.59021
0.589294
0.588989
0.589294
0.588379
0.588074
0.587463
0.587158
0.586853
0.586548
0.586548
0.585938
0.585327
0.585327
0.585022
0.584412
0.584412
0.584412
0.584412
0.583496
0.583496
0.582886
0.583191
0.582581
0.582886
0.583191
0.582275
0.582275
0.58197
0.58197
0.581665
0.581665
0.58075
0.58075
0.579834
0.579834
0.580139
0.580139
0.579224
0.579529
0.579224
0.578613
0.578308
0.578308
0.578003
0.578308
0.578003
0.577393
0.576782
0.577087
0.576782
0.576477
0.576172
0.576477
0.575867
0.575256
0.574951
0.574951
0.574646
0.575256
0.574036
0.574646
0.574951
0.574341
0.574341
0.574341
0.574341
0.574341
0.57373
0.574341
0.57312
0.573425
0.573425
0.57251
0.572815
0.572815
0.572815
0.57251
0.572815
0.57251
0.57251
0.572205
0.572205
0.571899
0.572205
0.57251
0.572205
0.572205
0.57251
0.571899
0.572205
0.571899
0.571899
0.571899
0.572815
0.57312
0.572205
0.572815
0.572815
0.572815
0.57251
0.573425
0.57373
0.57373
0.572815
0.573425
0.57373
0.574036
0.57373
0.57373
0.573425
0.57373
0.57312
0.57312
0.573425
0.57312
0.57312
0.572815
0.57312
0.573425
0.57251
0.57312
0.57312
0.572815
0.57312
0.57312
0.572815
0.572815
0.57251
0.572815
0.571899
0.572815
0.571899
0.571899
0.571594
0.571289
0.570679
0.571289
0.570984
0.571289
0.570374
0.571289
0.570374
0.570374
0.569763
0.570374
0.569763
0.569763
0.569153
0.568848
0.568848
0.568542
0.567932
0.567932
0.567932
0.567932
0.567627
0.567017
0.566406
0.566711
0.565796
0.565796
0.565186
0.56488
0.564575
0.563965
0.563049
0.562134
0.561829
0.561829
0.561523
0.559998
0.559998
0.558777
0.558777
0.557861
0.557251
0.556946
0.556641
0.555725
0.555115
0.554504
0.554199
0.553894
0.553284
0.552979
0.552368
0.551147
0.551453
0.550842
0.549622
0.549622
0.549927
0.548706
0.547791
0.546265
0.54657
0.546265
0.545349
0.545349
0.545044
0.544128
0.543823
0.542908
0.541992
0.541687
0.541992
0.540771
0.540161
0.539551
0.53894
0.538635
0.538025
0.538025
0.537109
0.536804
0.536499
0.535278
0.534363
0.534668
0.534058
0.533142
0.533142
0.532532
0.531616
0.530701
0.53009
0.529785
0.529785
0.52887
0.528259
0.527344
0.526733
0.526428
0.525513
0.524902
0.523376
0.523682
0.523071
0.522461
0.521851
0.52124
0.520935
0.52002
0.519714
0.519104
0.518188
0.516663
0.516357
0.516357
0.515747
0.515747
0.514526
0.513916
0.513611
0.513611
0.51239
0.51178
0.511475
0.511169
0.510559
0.510254
0.510254
0.509338
0.509033
0.508423
0.508423
0.508423
0.506897
0.506897
0.506287
0.505676
0.505066
0.505981
0.504761
0.505066
0.503845
0.503845
0.503235
0.503845
0.503235
0.50354
0.503235
0.502014
0.502625
0.502014
0.501709
0.500488
0.500183
0.499878
0.500183
0.499573
0.498962
0.498657
0.498352
0.497742
0.496826
0.497437
0.496216
0.495911
0.495605
0.495605
0.494995
0.494995
0.49469
0.494385
0.49408
0.493469
0.492859
0.493164
0.491943
0.492554
0.491943
0.491638
0.491638
0.491638
0.491028
0.490723
0.490112
0.490723
0.490112
0.489502
0.489502
0.488281
0.488892
0.489197
0.489502
0.488281
0.488892
0.488586
0.487366
0.487366
0.487061
0.486755
0.48645
0.486755
0.487061
0.486755
0.48584
0.48645
0.485535
0.486145
0.485535
0.484924
0.48584
0.484619
0.485229
0.484924
0.484619
0.484314
0.484009
0.483398
0.483398
0.483093
0.483398
0.483093
0.482483
0.481873
0.480957
0.481873
0.481873
0.482178
0.481873
0.481262
0.481262
0.480652
0.481262
0.481262
0.480042
0.480652
0.480042
0.479736
0.480042
0.479126
0.479431
0.479431
0.479126
0.478821
0.479126
0.478516
0.478821
0.479126
0.479736
0.479126
0.478821
0.478821
0.478516
0.479431
0.478516
0.477905
0.477905
0.478516
0.477905
0.477905
0.4776
0.477295
0.477295
0.47699
0.47699
0.477295
0.476685
0.47699
0.476685
0.476074
0.477295
0.476685
0.476074
0.475159
0.476379
0.476074
0.475159
0.475769
0.475464
0.475464
0.475464
0.474243
0.473938
0.473938
0.474243
0.474243
0.474243
0.473938
0.473328
0.473938
0.473022
0.472717
0.473022
0.473328
0.473022
0.472412
0.471802
0.472107
0.472107
0.471497
0.470581
0.470581
0.471191
0.470276
0.469666
0.469666
0.470276
0.469055
0.469055
0.469055
0.46814
0.468445
0.46814
0.46814
0.467529
0.467224
0.466003
0.466614
0.466003
0.465698
0.465088
0.464478
0.464478
0.464172
0.463867
0.462952
0.463562
0.462646
0.462646
0.461731
0.462036
0.462036
0.461121
0.461426
0.460815
0.46051
0.4599
0.4599
0.459595
0.45929
0.458679
0.458374
0.457764
0.458069
0.457764
0.457764
0.457153
0.458069
0.457153
0.457458
0.457153
0.457764
0.457458
0.456848
0.457458
0.457153
0.456848
0.457764
0.458069
0.457458
0.457764
0.458374
0.458069
0.458984
0.45929
0.458679
0.45929
0.45929
0.459595
0.4599
0.460205
0.460205
0.459595
0.460205
0.460205
0.4599
0.460205
0.46051
0.459595
0.460205
0.4599
0.4599
0.45929
0.4599
0.4599
0.45929
0.459595
0.460205
0.45929
0.4599
0.459595
0.458984
0.45929
0.458374
0.458374
0.457764
0.457764
0.457764
0.457458
0.457153
0.456543
0.456238
0.456543
0.456238
0.455933
0.455627
0.455933
0.455933
0.455017
0.455322
0.455627
0.454712
0.455322
0.453796
0.454712
0.454407
0.454712
0.454102
0.454102
0.453796
0.454102
0.454102
0.453186
0.454407
0.454407
0.453186
0.454102
0.453186
0.453186
0.452881
0.453186
0.453186
0.453186
0.452576
0.452271
0.451965
0.451965
0.451355
0.45166
0.451965
0.45166
0.451965
0.451965
0.451965
0.451965
0.452271
0.45166
0.451355
0.45166
0.45166
0.451355
0.451355
0.451965
0.451965
0.45105
0.45166
0.45166
0.452271
0.45166
0.452271
0.45166
0.452576
0.452271
0.452271
0.451965
0.452576
0.452576
0.452576
0.453491
0.454407
0.453491
0.453796
0.453796
0.454102
0.453796
0.454102
0.453491
0.453796
0.454102
0.454102
0.453491
0.454102
0.454102
0.454407
0.454407
0.454407
0.455322
0.454712
0.455017
0.455322
0.455627
0.455627
0.455627
0.455933
0.455627
0.455322
0.455627
0.455017
0.455322
0.455322
0.455322
0.455017
0.455322
0.454712
0.454712
0.454712
0.454102
0.454407
0.455017
0.454712
0.455627
0.454712
0.454407
0.454712
0.455017
0.454712
0.454407
0.454102
0.454407
0.454712
0.454102
0.454712
0.454712
0.454102
0.454407
0.455322
0.454712
0.455017
0.454407
0.454407
0.454407
0.454712
0.455017
0.454712
0.454102
0.453796
0.454102
0.453491
0.453491
0.453491
0.453796
0.454102
0.454407
0.454102
0.453796
0.455627
0.455627
0.455627
0.455627
0.455933
0.456848
0.455933
0.456238
0.455933
0.456543
0.457153
0.456238
0.456238
0.456543
0.456238
0.456543
0.455933
0.456848
0.456238
0.456848
0.456848
0.457153
0.456543
0.456543
0.457153
0.456848
0.457153
0.457153
0.456848
0.457153
0.456238
0.456238
0.456543
0.456238
0.456848
0.456543
0.456848
0.455627
0.456848
0.456543
0.455933
0.455933
0.456848
0.455933
0.456543
0.456543
0.456848
0.456238
0.456543
0.457458
0.457458
0.457458
0.457458
0.457153
0.457153
0.457764
0.456848
0.458069
0.458984
0.45929
0.458679
0.4599
0.459595
0.459595
0.460815
0.46051
0.460815
0.461426
0.462341
0.461731
0.462646
0.462341
0.463257
0.463562
0.463867
0.463867
0.464783
0.464783
0.465698
0.466309
0.466003
0.467529
0.467529
0.468445
0.470276
0.469971
0.470581
0.471802
0.472412
0.473633
0.474548
0.476074
0.476379
0.476379
0.47821
0.479431
0.480347
0.481567
0.482788
0.484619
0.485535
0.487061
0.488892
0.489807
0.491943
0.493469
0.4953
0.496216
0.498657
0.500183
0.50293
0.50415
0.505981
0.507507
0.509949
0.51178
0.514221
0.516052
0.518188
0.520325
0.522766
0.525208
0.527344
0.530396
0.532837
0.535889
0.538025
0.540771
0.543213
0.545959
0.548706
0.550842
0.553894
0.55603
0.559692
0.562134
0.565186
0.567322
0.570068
0.57251
0.575256
0.578613
0.58136
0.583801
0.586853
0.588989
0.592041
0.594482
0.596619
0.59906
0.601807
0.603638
0.606384
0.608215
0.610962
0.613098
0.615234
0.616455
0.618896
0.621948
0.624084
0.62561
0.628052
0.629578
0.631104
0.632324
0.634766
0.636292
0.638428
0.640869
0.641785
0.643616
0.645142
0.646362
0.648193
0.650024
0.65033
0.65155
0.654602
0.654907
0.656433
0.657043
0.658264
0.65979
0.660706
0.662842
0.661926
0.663452
0.663757
0.664673
0.665283
0.666199
0.666809
0.667419
0.668335
0.66864
0.66925
0.66864
0.669861
0.670166
0.670776
0.671387
0.671082
0.671997
0.671692
0.672302
0.672302
0.672302
0.671997
0.672913
0.671997
0.672302
0.672913
0.672607
0.672302
0.671997
0.671387
0.671692
0.671082
0.671387
0.671692
0.671387
0.671082
0.670776
0.670776
0.670471
0.66925
0.669556
0.66925
0.66803
0.66803
0.667114
0.667114
0.666504
0.666504
0.666199
0.664673
0.664673
0.664368
0.664368
0.663757
0.663452
0.663452
0.662537
0.662842
0.661926
0.661621
0.661316
0.661011
0.661011
0.6604
0.65979
0.65979
0.658569
0.659485
0.658569
0.658569
0.657349
0.657043
0.657349
0.656433
0.656738
0.656738
0.655823
0.655518
0.655823
0.655518
0.654602
0.655212
0.653992
0.653992
0.654907
0.654297
0.653381
0.654297
0.653992
0.653381
0.652771
0.653076
0.653687
0.653076
0.653076
0.653687
0.653076
0.653076
0.652466
0.652771
0.652771
0.652161
0.653687
0.652466
0.653381
0.653381
0.652771
0.652771
0.653687
0.653381
0.652771
0.653076
0.653381
0.652771
0.652771
0.653687
0.653992
0.654297
0.654297
0.653381
0.653992
0.654602
0.654907
0.655518
0.655518
0.656128
0.656128
0.655518
0.656128
0.656433
0.656433
0.656738
0.657349
0.657043
0.657349
0.657349
0.657349
0.657654
0.657959
0.658569
0.657654
0.658264
0.658264
0.658569
0.658569
0.657654
0.657959
0.657654
0.657349
0.657349
0.657043
0.657349
0.657043
0.657043
0.657043
0.656738
0.656433
0.656128
0.655823
0.655823
0.655212
0.655212
0.654907
0.654602
0.654907
0.653381
0.653687
0.653076
0.652161
0.652161
0.652161
0.65155
0.651245
0.650635
0.650024
0.649414
0.650024
0.649719
0.648193
0.648499
0.648193
0.647888
0.646973
0.646973
0.646667
0.646362
0.645142
0.644531
0.644836
0.645142
0.644531
0.643311
0.643005
0.643616
0.64209
0.641785
0.641785
0.64209
0.641174
0.641174
0.641174
0.640564
0.639954
0.639648
0.639038
0.638733
0.639343
0.638123
0.637207
0.636902
0.637207
0.635986
0.636292
0.635071
0.63446
0.63446
0.634766
0.63385
0.632935
0.632935
0.632629
0.632629
0.632019
0.631714
0.631714
0.630493
0.630493
0.630493
0.629883
0.630493
0.629272
0.629272
0.629272
0.628662
0.628357
0.628357
0.628052
0.628357
0.628052
0.627441
0.627136
0.626831
0.626526
0.625916
0.625916
0.625305
0.625
0.624084
0.624084
0.623779
0.624084
0.62439
0.623779
0.623474
0.623474
0.622864
0.622864
0.622864
0.622864
0.622253
0.622559
0.622559
0.621643
0.621643
0.621643
0.621338
0.620728
0.621033
0.620422
0.621033
0.619812
0.620117
0.619202
0.619507
0.619202
0.618286
0.619507
0.618896
0.618591
0.617676
0.617981
0.617981
0.617065
0.61676
0.617065
0.61676
0.616455
0.615234
0.615845
0.615234
0.615234
0.614624
0.615234
0.615234
0.614014
0.614624
0.614014
0.613403
0.613098
0.613098
0.612793
0.612488
0.612488
0.610962
0.611267
0.610657
0.610657
0.610657
0.609741
0.609436
0.609131
0.608215
0.608521
0.608215
0.608215
0.606995
0.606689
0.606079
0.605774
0.605164
0.605469
0.603943
0.603638
0.603027
0.602112
0.602112
0.601807
0.600891
0.599976
0.599365
0.598755
0.59906
0.598145
0.597534
0.596924
0.596008
0.595398
0.595093
0.594177
0.593262
0.592957
0.591431
0.591431
0.591431
0.59082
0.589294
0.588684
0.588379
0.586853
0.586243
0.585632
0.584717
0.584412
0.583191
0.582886
0.582275
0.58197
0.581055
0.58075
0.580139
0.579224
0.578613
0.577698
0.576477
0.576477
0.576172
0.575256
0.574341
0.57312
0.57312
0.572205
0.571594
0.570374
0.570374
0.569763
0.568237
0.567932
0.567322
0.566711
0.566711
0.565186
0.56427
0.56366
0.562744
0.562744
0.561523
0.560608
0.559998
0.559082
0.558777
0.557556
0.557556
0.556946
0.555725
0.55542
0.554504
0.553894
0.554199
0.552673
0.552979
0.551758
0.550232
0.550537
0.549316
0.548096
0.548096
0.546875
0.546875
0.54657
0.545959
0.545044
0.543823
0.544128
0.542908
0.542603
0.541382
0.541382
0.540466
0.540161
0.539246
0.53894
0.53833
0.537415
0.536194
0.535278
0.536194
0.534668
0.534058
0.533142
0.532532
0.531921
0.531311
0.531006
0.530396
0.52948
0.529175
0.528564
0.52887
0.527954
0.526428
0.527344
0.525818
0.525208
0.524597
0.523987
0.524902
0.523071
0.523376
0.521851
0.521545
0.52063
0.520935
0.520325
0.519714
0.519409
0.519104
0.518494
0.518188
0.517883
0.517883
0.517273
0.516663
0.515442
0.514832
0.514832
0.514221
0.514221
0.513916
0.513
0.513306
0.513
0.51239
0.512695
0.511475
0.511475
0.51178
0.511169
0.511169
0.510254
0.509949
0.509033
0.509338
0.509033
0.508118
0.508423
0.507812
0.506897
0.506897
0.505981
0.505371
0.505066
0.504761
0.50415
0.50415
0.50354
0.503235
0.50293
0.502625
0.501404
0.501709
0.500793
0.500793
0.500183
0.499573
0.499573
0.498657
0.499268
0.498352
0.497437
0.496826
0.497131
0.495911
0.495911
0.495605
0.494995
0.49469
0.493469
0.493774
0.492554
0.492554
0.492249
0.491943
0.491638
0.491028
0.491028
0.490723
0.490723
0.489807
0.490723
0.489502
0.489197
0.489197
0.489197
0.489197
0.488892
0.489197
0.489197
0.487976
0.488281
0.488281
0.487976
0.487976
0.487671
0.487061
0.487366
0.486755
0.487671
0.48645
0.486145
0.48584
0.485229
0.485535
0.484619
0.484619
0.484619
0.483704
0.484924
0.484009
0.482788
0.484009
0.484009
0.484009
0.482788
0.483093
0.482483
0.482483
0.481567
0.481873
0.481567
0.480957
0.480652
0.480652
0.480347
0.480957
0.480347
0.479431
0.479431
0.479126
0.479431
0.47821
0.47821
0.47821
0.477905
0.477905
0.476685
0.476379
0.47699
0.476379
0.475769
0.475159
0.474548
0.474548
0.474854
0.473938
0.474548
0.473938
0.473938
0.473938
0.473022
0.472717
0.472412
0.472412
0.471497
0.471802
0.471497
0.470886
0.470886
0.470581
0.470581
0.470581
0.469666
0.469971
0.469971
0.469666
0.46875
0.468445
0.46814
0.46814
0.467834
0.467224
0.466614
0.467529
0.466919
0.466614
0.466614
0.466309
0.465393
0.466309
0.465698
0.465393
0.465393
0.464172
0.464783
0.464172
0.463867
0.463867
0.463562
0.463867
0.463562
0.463257
0.463867
0.462341
0.462646
0.462036
0.462341
0.462646
0.462341
0.462036
0.461731
0.461121
0.461731
0.461731
0.461121
0.461426
0.461426
0.461426
0.461426
0.461121
0.461426
0.460205
0.460205
0.4599
0.460205
0.459595
0.459595
0.458679
0.458679
0.458374
0.458069
0.457458
0.458374
0.458069
0.457153
0.457153
0.457153
0.456238
0.456848
0.456543
0.455933
0.455322
0.455627
0.454712
0.455627
0.455017
0.455017
0.454712
0.454407
0.454712
0.453491
0.453186
0.454102
0.453186
0.453186
0.452881
0.453186
0.453796
0.452576
0.452271
0.452271
0.452881
0.452576
0.45166
0.45166
0.45105
0.45105
0.450439
0.45105
0.450134
0.45105
0.449829
0.449219
0.450439
0.449829
0.449219
0.448608
0.448914
0.448303
0.449219
0.449524
0.448608
0.448303
0.447998
0.447693
0.447693
0.447388
0.447693
0.447388
0.447693
0.447388
0.447083
0.447083
0.446777
0.447083
0.446777
0.446777
0.446472
0.446777
0.446167
0.446472
0.446167
0.446167
0.445862
0.445862
0.444641
0.445251
0.444946
0.445251
0.445557
0.444641
0.444641
0.443726
0.443726
0.444336
0.444031
0.443726
0.444336
0.444031
0.443726
0.444336
0.444336
0.445251
0.444336
0.444946
0.445251
0.444946
0.444946
0.445251
0.444641
0.445251
0.444641
0.444946
0.444031
0.444641
0.444946
0.445251
0.445251
0.444641
0.444946
0.444946
0.444336
0.444946
0.444946
0.444641
0.444336
0.444336
0.444946
0.444336
0.444031
0.443726
0.444031
0.444031
0.44342
0.444336
0.444336
0.444031
0.444031
0.444336
0.444031
0.444336
0.444031
0.444336
0.444031
0.444336
0.444336
0.444946
0.443726
0.444336
0.444946
0.444946
0.444641
0.444946
0.445557
0.444946
0.444946
0.445251
0.445251
0.445862
0.445557
0.446167
0.446167
0.446777
0.446167
0.446167
0.445862
0.446167
0.445862
0.446472
0.446167
0.446472
0.445862
0.446777
0.446777
0.446472
0.447083
0.446167
0.446777
0.447693
0.447388
0.447388
0.447083
0.447388
0.447998
0.447388
0.447388
0.447693
0.447998
0.448303
0.447388
0.447388
0.447693
0.447083
0.447083
0.447388
0.447083
0.447083
0.447083
0.447388
0.446777
0.447388
0.447083
0.446777
0.447083
0.447083
0.447083
0.447998
0.447083
0.447388
0.447388
0.447388
0.447388
0.447998
0.447388
0.447388
0.447998
0.447998
0.448303
0.447693
0.447693
0.447388
0.447693
0.447998
0.447693
0.447083
0.446777
0.446777
0.447083
0.446777
0.446777
0.447693
0.446472
0.446472
0.446777
0.446472
0.446777
0.446777
0.446472
0.447693
0.446777
0.447388
0.446777
0.447083
0.446777
0.447388
0.447083
0.446777
0.446777
0.447083
0.446777
0.446472
0.446777
0.447083
0.447388
0.447388
0.447083
0.446472
0.447388
0.447388
0.447693
0.447388
0.446777
0.446777
0.447388
0.447388
0.447388
0.447693
0.447388
0.447693
0.447998
0.447998
0.447998
0.447998
0.447998
0.447998
0.448303
0.448914
0.447998
0.448303
0.448303
0.448608
0.448303
0.448914
0.448608
0.448303
0.448303
0.448608
0.449219
0.448608
0.448914
0.449219
0.449219
0.448608
0.448914
0.449219
0.449219
0.449219
0.449524
0.449219
0.448914
0.449219
0.449524
0.449219
0.449829
0.449524
0.448303
0.449524
0.449524
0.448914
0.449219
0.448608
0.449219
0.447998
0.448608
0.448608
0.449219
0.448914
0.449219
0.449524
0.449219
0.449524
0.449219
0.449524
0.449219
0.449829
0.449524
0.449829
0.450134
0.450134
0.450439
0.450439
0.450439
0.450439
0.45166
0.450745
0.451355
0.45166
0.451965
0.451965
0.452271
0.451965
0.452576
0.452576
0.452271
0.453186
0.452271
0.454102
0.452881
0.453491
0.454102
0.454712
0.455627
0.455627
0.456543
0.456238
0.457764
0.458374
0.459595
0.4599
0.460205
0.461121
0.462036
0.463257
0.464478
0.465088
0.466309
0.467529
0.468445
0.46936
0.471497
0.472412
0.474243
0.475464
0.47699
0.478516
0.480652
0.482178
0.484619
0.485535
0.488586
0.490417
0.492249
0.494385
0.496521
0.499268
0.500488
0.503235
0.505066
0.507507
0.510864
0.512695
0.515137
0.517273
0.519714
0.522461
0.524902
0.528259
0.53009
0.533142
0.535278
0.538025
0.539856
0.543518
0.545959
0.548096
0.550537
0.553894
0.556335
0.558777
0.562134
0.563965
0.566406
0.569153
0.571594
0.574341
0.577393
0.579224
0.58136
0.585022
0.586853
0.5896
0.591431
0.594788
0.596619
0.59906
0.601501
0.603333
0.606384
0.608215
0.610657
0.612488
0.615234
0.617065
0.619202
0.621338
0.622559
0.624695
0.626831
0.628967
0.630493
0.632629
0.634155
0.635376
0.637512
0.638428
0.639954
0.641174
0.6427
0.644531
0.646057
0.646973
0.647888
0.649719
0.65033
0.652161
0.653076
0.654297
0.654602
0.655823
0.656738
0.657043
0.658264
0.658875
0.660095
0.660095
0.661316
0.661621
0.662231
0.661926
0.662537
0.663147
0.663757
0.663452
0.664368
0.664673
0.664673
0.664368
0.664978
0.665283
0.664062
0.664673
0.664673
0.664673
0.664673
0.664673
0.665283
0.664062
0.664368
0.663757
0.664368
0.664673
0.663147
0.664062
0.663452
0.663147
0.663452
0.662537
0.662842
0.663147
0.661926
0.662537
0.661926
0.661621
0.661316
0.661011
0.6604
0.660706
0.6604
0.659485
0.659485
0.659485
0.65918
0.658264
0.657654
0.658264
0.657043
0.656433
0.656738
0.656128
0.655823
0.655212
0.654602
0.655212
0.653992
0.653992
0.652771
0.653076
0.652161
0.651855
0.651245
0.652161
0.651245
0.651245
0.65094
0.650635
0.650024
0.65033
0.649719
0.65033
0.649414
0.649414
0.649414
0.649414
0.648804
0.648193
0.648804
0.648804
0.647888
0.648499
0.648499
0.648193
0.648499
0.648499
0.648804
0.648193
0.648804
0.648804
0.648499
0.648499
0.649414
0.649414
0.650024
0.649414
0.650635
0.649719
0.649414
0.649719
0.650024
0.650635
0.650024
0.649414
0.650635
0.651245
0.65094
0.651855
0.651245
0.65155
0.651855
0.652161
0.651855
0.653381
0.652771
0.652771
0.652466
0.653687
0.653687
0.654297
0.654297
0.654297
0.653992
0.654602
0.654602
0.654907
0.654602
0.655212
0.654602
0.654907
0.654602
0.655518
0.655518
0.655518
0.655212
0.654907
0.654907
0.654907
0.654907
0.654297
0.654602
0.654297
0.653992
0.653381
0.653381
0.653381
0.653992
0.653687
0.652771
0.652161
0.653076
0.651855
0.652466
0.651855
0.65094
0.65033
0.65033
0.649719
0.650024
0.648804
0.647583
0.648193
0.647278
0.646667
0.646362
0.646057
0.645142
0.644836
0.644531
0.643616
0.6427
0.6427
0.641785
0.640869
0.640869
0.639954
0.639648
0.639038
0.637817
0.636902
0.636597
0.636292
0.635071
0.635071
0.63446
0.63385
0.63324
0.632935
0.632629
0.631714
0.631409
0.631714
0.631714
0.631409
0.630188
0.630493
0.629883
0.629883
0.630188
0.629578
0.629272
0.628967
0.628357
0.628662
0.628967
0.628052
0.628357
0.628357
0.628662
0.628357
0.628052
0.628357
0.628357
0.629272
0.628357
0.628357
0.628357
0.627747
0.628052
0.628357
0.627747
0.628662
0.628052
0.628052
0.628662
0.627747
0.628967
0.627747
0.628662
0.628357
0.628662
0.628662
0.628967
0.628967
0.628662
0.628052
0.628967
0.628052
0.628052
0.628357
0.627747
0.628357
0.628357
0.628052
0.628052
0.627441
0.627441
0.627136
0.627136
0.627441
0.627136
0.627136
0.627441
0.626526
0.626526
0.626526
0.625916
0.625916
0.625305
0.625
0.624695
0.62439
0.624695
0.623474
0.624695
0.624084
0.623169
0.622864
0.622559
0.622253
0.622253
0.621643
0.621338
0.621338
0.620728
0.620728
0.620422
0.620422
0.620117
0.619812
0.619202
0.619202
0.618286
0.618286
0.618286
0.617065
0.616455
0.616455
0.61615
0.61554
0.61615
0.614624
0.615234
0.614319
0.614319
0.613708
0.613403
0.612793
0.611267
0.612183
0.610657
0.609741
0.609436
0.608521
0.608521
0.607605
0.6073
0.6073
0.606689
0.605774
0.604858
0.604553
0.604248
0.602722
0.602722
0.601807
0.601196
0.600891
0.600281
0.59906
0.598145
0.598145
0.597229
0.596313
0.596008
0.594788
0.594788
0.594177
0.592346
0.592651
0.591431
0.592041
0.59082
0.59021
0.5896
0.588989
0.588074
0.587158
0.586853
0.585327
0.585327
0.585022
0.584106
0.583496
0.583496
0.581055
0.58197
0.58136
0.581055
0.579529
0.579834
0.578918
0.577698
0.577393
0.576477
0.576172
0.575256
0.574951
0.573425
0.572815
0.572205
0.571594
0.570068
0.569153
0.568542
0.568237
0.567017
0.566101
0.565796
0.565186
0.563965
0.56427
0.562439
0.561829
0.560913
0.559998
0.559082
0.558167
0.557251
0.556335
0.55542
0.554504
0.553589
0.552979
0.552063
0.550842
0.550232
0.549927
0.548706
0.548096
0.547485
0.546875
0.545349
0.545349
0.545349
0.544128
0.543823
0.542603
0.541077
0.540771
0.540466
0.539551
0.539551
0.538635
0.537415
0.537415
0.537109
0.536194
0.536194
0.534973
0.534973
0.534668
0.533752
0.533752
0.532837
0.532532
0.531311
0.531311
0.530701
0.530701
0.530396
0.53009
0.529175
0.52887
0.527954
0.528564
0.527649
0.527344
0.526733
0.526428
0.526428
0.525208
0.524292
0.524292
0.523682
0.523376
0.523071
0.522461
0.52124
0.52063
0.519409
0.519104
0.519409
0.518494
0.517883
0.516663
0.515747
0.516357
0.515442
0.514832
0.513916
0.514526
0.513306
0.512695
0.51239
0.512085
0.511169
0.510559
0.509949
0.509644
0.508423
0.508118
0.508118
0.507507
0.506897
0.506287
0.505676
0.505066
0.504761
0.504456
0.504456
0.504456
0.503235
0.503845
0.50293
0.50354
0.50293
0.501099
0.501404
0.500488
0.500488
0.500488
0.500183
0.499878
0.499268
0.498962
0.499573
0.498657
0.498657
0.498352
0.497742
0.497131
0.497437
0.496521
0.496521
0.496216
0.495911
0.495911
0.495605
0.495911
0.494995
0.494385
0.493774
0.493774
0.49408
0.493164
0.493469
0.493774
0.493469
0.493774
0.493164
0.492249
0.491943
0.492859
0.492249
0.492859
0.491333
0.491333
0.491638
0.491028
0.491028
0.490723
0.489807
0.489502
0.489807
0.489807
0.489502
0.488892
0.488586
0.487976
0.488586
0.488892
0.487671
0.487671
0.487366
0.487061
0.487366
0.487061
0.486755
0.48584
0.486145
0.486145
0.48584
0.485229
0.484924
0.484009
0.484314
0.484619
0.484009
0.483704
0.482483
0.482483
0.482483
0.482483
0.482483
0.481567
0.480957
0.480347
0.479736
0.479431
0.479736
0.478821
0.47821
0.478821
0.4776
0.47699
0.477295
0.475769
0.476074
0.475464
0.474854
0.474854
0.474243
0.473938
0.473328
0.473022
0.472717
0.471802
0.470886
0.471191
0.470581
0.470276
0.469666
0.469055
0.46875
0.468445
0.467834
0.467224
0.467224
0.466919
0.466003
0.466309
0.465393
0.465088
0.464783
0.464478
0.464478
0.463562
0.463867
0.463257
0.462341
0.462952
0.462341
0.461426
0.461426
0.460815
0.460815
0.4599
0.4599
0.459595
0.45929
0.458374
0.458069
0.457764
0.457764
0.457153
0.456543
0.455933
0.456238
0.455627
0.455322
0.455017
0.454712
0.454407
0.454712
0.454102
0.453796
0.454102
0.453186
0.453491
0.453491
0.452576
0.452576
0.452576
0.452271
0.45105
0.452271
0.451355
0.45166
0.450745
0.450439
0.449829
0.450439
0.448608
0.448608
0.449524
0.448303
0.447998
0.447998
0.447693
0.447998
0.446777
0.447083
0.447083
0.446777
0.447388
0.446167
0.445557
0.446167
0.446472
0.446167
0.445862
0.446167
0.445862
0.445251
0.445251
0.445251
0.445557
0.445251
0.445251
0.444336
0.444946
0.444031
0.445251
0.445251
0.444336
0.444946
0.445251
0.444641
0.444641
0.444946
0.444641
0.444946
0.444336
0.444336
0.444031
0.444031
0.444946
0.444641
0.444336
0.444641
0.444641
0.444336
0.444641
0.44342
0.443726
0.443115
0.44342
0.443726
0.443115
0.44281
0.442505
0.4422
0.4422
0.4422
0.441589
0.4422
0.441895
0.441589
0.440979
0.441895
0.441284
0.441589
0.441589
0.440979
0.440369
0.440674
0.440674
0.440369
0.440674
0.440979
0.440674
0.440979
0.440063
0.440674
0.440979
0.440674
0.440979
0.440674
0.440674
0.441284
0.441589
0.441284
0.441589
0.441284
0.441589
0.441589
0.441895
0.4422
0.442505
0.442505
0.44281
0.442505
0.443115
0.44342
0.442505
0.443115
0.443726
0.443726
0.443115
0.443726
0.443726
0.444336
0.444641
0.444031
0.444031
0.444336
0.444946
0.444641
0.444946
0.444336
0.444641
0.445557
0.445862
0.445862
0.446777
0.446472
0.445862
0.447388
0.446777
0.447388
0.447693
0.446777
0.446777
0.446167
0.447388
0.447083
0.446777
0.447693
0.447388
0.447083
0.447083
0.447388
0.446777
0.447083
0.446777
0.446777
0.446777
0.446167
0.446472
0.446167
0.446472
0.446472
0.446777
0.446472
0.446777
0.446777
0.445862
0.446472
0.446777
0.447083
0.447083
0.447388
0.446777
0.446777
0.447083
0.446777
0.447083
0.447693
0.447998
0.447998
0.447693
0.448303
0.448608
0.448303
0.449219
0.448914
0.448914
0.448914
0.449524
0.449829
0.449524
0.450134
0.450134
0.449829
0.449524
0.450439
0.450134
0.450439
0.450134
0.450745
0.45105
0.451965
0.451355
0.451965
0.452271
0.452576
0.451965
0.452576
0.452881
0.453186
0.453491
0.453796
0.453491
0.453491
0.453491
0.454407
0.455017
0.455322
0.454712
0.455933
0.456543
0.456238
0.455933
0.456238
0.456238
0.455627
0.456848
0.456238
0.456543
0.456238
0.455933
0.456238
0.455627
0.455933
0.456238
0.455933
0.456848
0.455933
0.456238
0.456848
0.456238
0.456238
0.456238
0.455933
0.456238
0.456238
0.455322
0.455627
0.455322
0.455627
0.455627
0.455322
0.455627
0.455322
0.455322
0.455322
0.455322
0.455322
0.455017
0.455322
0.454712
0.455017
0.455627
0.455017
0.455627
0.455933
0.455017
0.455322
0.455627
0.455627
0.455017
0.455017
0.455322
0.454712
0.455322
0.455322
0.455017
0.455627
0.456238
0.456238
0.455933
0.456543
0.456238
0.456543
0.456848
0.457153
0.456238
0.457153
0.456848
0.457764
0.456848
0.457458
0.458069
0.457458
0.458069
0.458069
0.458374
0.458374
0.458374
0.459595
0.45929
0.4599
0.4599
0.4599
0.461121
0.461121
0.460815
0.461426
0.461731
0.461731
0.462646
0.462646
0.463562
0.464783
0.464783
0.464783
0.465698
0.466309
0.467834
0.467529
0.469055
0.46936
0.470276
0.471497
0.472412
0.473633
0.475159
0.475769
0.47699
0.478516
0.480042
0.481567
0.482788
0.484314
0.48645
0.488281
0.490112
0.491333
0.492859
0.495911
0.497131
0.498962
0.501099
0.50354
0.505371
0.507507
0.509644
0.510864
0.513916
0.516357
0.519409
0.521545
0.523987
0.525513
0.528259
0.531311
0.532837
0.535278
0.537415
0.539246
0.542297
0.544739
0.547485
0.549927
0.552368
0.555115
0.557251
0.559998
0.562439
0.564575
0.566406
0.569153
0.571289
0.574341
0.576782
0.578918
0.581055
0.583801
0.586243
0.588074
0.59021
0.592957
0.594788
0.597534
0.599976
0.601807
0.603943
0.605164
0.60791
0.608826
0.611572
0.613708
0.615234
0.617371
0.618896
0.621033
0.621948
0.623169
0.626221
0.627136
0.628967
0.630493
0.632019
0.633545
0.63385
0.635986
0.636902
0.637817
0.638733
0.639648
0.639954
0.641479
0.6427
0.643616
0.644836
0.644531
0.645142
0.646362
0.646667
0.647583
0.648804
0.648193
0.649414
0.649719
0.650635
0.65094
0.65094
0.651245
0.652161
0.651855
0.652161
0.652466
0.653076
0.652771
0.652466
0.652466
0.652771
0.652771
0.652466
0.651855
0.652466
0.652466
0.652161
0.651855
0.651855
0.65155
0.651245
0.651245
0.65094
0.650635
0.65033
0.650024
0.65033
0.65033
0.649109
0.648804
0.649414
0.648804
0.648193
0.649414
0.648499
0.648193
0.647278
0.647278
0.646973
0.646667
0.646667
0.646057
0.645752
0.645447
0.644836
0.644836
0.644531
0.643616
0.643921
0.643616
0.643005
0.643005
0.64209
0.641785
0.641785
0.641174
0.640869
0.640259
0.640259
0.639648
0.638733
0.638123
0.638733
0.637512
0.637207
0.637817
0.636902
0.636597
0.636292
0.635376
0.635071
0.635071
0.635071
0.634155
0.634155
0.634155
0.63385
0.634155
0.63324
0.632935
0.632324
0.632935
0.632629
0.632324
0.632629
0.632629
0.632324
0.632629
0.632019
0.632324
0.632629
0.632324
0.632324
0.632935
0.632935
0.632629
0.632935
0.632324
0.632629
0.632629
0.632324
0.632324
0.631714
0.632324
0.632019
0.631714
0.632019
0.632324
0.631409
0.631409
0.631409
0.630188
0.630493
0.631104
0.631104
0.631104
0.630493
0.630188
0.629578
0.629578
0.629578
0.629883
0.629272
0.628967
0.628662
0.628967
0.629578
0.629272
0.628662
0.627441
0.628052
0.627136
0.627441
0.627441
0.626831
0.626831
0.626526
0.625916
0.62561
0.625305
0.625305
0.624695
0.624695
0.62439
0.623779
0.623779
0.623779
0.622864
0.622864
0.622253
0.622253
0.621643
0.621338
0.620728
0.621033
0.620117
0.619812
0.618591
0.618896
0.618286
0.617065
0.617065
0.617371
0.616455
0.61615
0.615845
0.615234
0.614319
0.614319
0.614624
0.613098
0.613708
0.613403
0.613098
0.612793
0.612183
0.611267
0.611877
0.611572
0.611267
0.610657
0.610352
0.609741
0.610657
0.609741
0.609436
0.609131
0.609131
0.609131
0.609131
0.609131
0.608521
0.608521
0.608521
0.608215
0.608826
0.608215
0.608521
0.60791
0.60791
0.607605
0.606689
0.6073
0.606384
0.606079
0.606689
0.606079
0.606689
0.606384
0.606079
0.605774
0.605469
0.605774
0.606079
0.605164
0.605469
0.605164
0.604858
0.605469
0.604553
0.603943
0.604858
0.603943
0.603638
0.603333
0.603943
0.603943
0.603333
0.603333
0.603333
0.602722
0.603333
0.602722
0.603333
0.603333
0.603027
0.602722
0.602722
0.602722
0.602417
0.602417
0.602417
0.601807
0.601196
0.601501
0.601501
0.601196
0.600281
0.600586
0.599976
0.600586
0.59967
0.599365
0.598755
0.598755
0.598755
0.59845
0.597839
0.597839
0.597229
0.597229
0.596619
0.597229
0.596619
0.596008
0.596008
0.595703
0.595703
0.595093
0.594788
0.594482
0.594482
0.594177
0.593872
0.594177
0.593567
0.593262
0.592957
0.592957
0.592346
0.592041
0.592041
0.591736
0.591736
0.59082
0.590515
0.59021
0.589905
0.588684
0.588684
0.588989
0.588684
0.588379
0.587158
0.587769
0.587463
0.586548
0.586243
0.586548
0.586243
0.584412
0.585022
0.584412
0.583496
0.582886
0.583191
0.58197
0.581665
0.581665
0.58075
0.579529
0.579834
0.578613
0.578308
0.577393
0.577087
0.576172
0.575867
0.574646
0.574646
0.574341
0.57373
0.571899
0.571289
0.570984
0.570068
0.570374
0.569153
0.567932
0.567932
0.566711
0.566406
0.565796
0.56488
0.564575
0.56366
0.563049
0.562744
0.560608
0.560303
0.560303
0.559692
0.559082
0.558167
0.558167
0.556335
0.557251
0.556335
0.55542
0.555115
0.554504
0.554199
0.553894
0.553284
0.552979
0.552368
0.552063
0.551147
0.550842
0.551147
0.549927
0.549622
0.548706
0.549011
0.547791
0.547791
0.547485
0.546875
0.546265
0.545349
0.545044
0.545044
0.543823
0.542908
0.542908
0.541992
0.540771
0.540771
0.540466
0.539856
0.538635
0.539246
0.53833
0.536804
0.536499
0.536194
0.534973
0.534668
0.534668
0.534363
0.533447
0.532837
0.532837
0.532532
0.531921
0.531006
0.531006
0.530396
0.529785
0.528564
0.528564
0.527954
0.527649
0.526733
0.525818
0.525818
0.525208
0.524292
0.524902
0.523071
0.523376
0.523682
0.523682
0.521851
0.521851
0.52063
0.520935
0.520325
0.52002
0.519714
0.518799
0.517883
0.518799
0.516357
0.516357
0.516052
0.515442
0.514832
0.514221
0.514832
0.514221
0.513
0.513
0.51239
0.512085
0.510864
0.511169
0.510559
0.509949
0.509338
0.509949
0.508423
0.509033
0.507507
0.507507
0.506897
0.506592
0.506287
0.505676
0.505981
0.504761
0.504761
0.50415
0.50415
0.50415
0.50354
0.503235
0.501404
0.501709
0.501099
0.501404
0.499878
0.499878
0.499268
0.498962
0.498352
0.498657
0.498352
0.498047
0.497742
0.497437
0.496826
0.497131
0.496826
0.496521
0.495911
0.495605
0.495605
0.494995
0.49469
0.493774
0.493469
0.493469
0.493469
0.492554
0.492554
0.491943
0.491028
0.491028
0.490723
0.490723
0.491028
0.490723
0.489807
0.489807
0.490112
0.489197
0.488892
0.488892
0.488892
0.487671
0.487061
0.487671
0.487061
0.485535
0.48584
0.485535
0.486145
0.484619
0.485229
0.484924
0.484314
0.484619
0.483398
0.483704
0.484009
0.484009
0.483093
0.483398
0.482178
0.482178
0.482178
0.481873
0.481567
0.480957
0.480957
0.480957
0.480652
0.480652
0.480957
0.480042
0.480957
0.480347
0.480652
0.480652
0.480652
0.480652
0.480347
0.480652
0.480347
0.480042
0.480042
0.479736
0.478516
0.479736
0.479431
0.479126
0.479126
0.479126
0.478516
0.477905
0.47821
0.47821
0.478821
0.478516
0.47821
0.477905
0.477295
0.47699
0.476685
0.476379
0.476074
0.475769
0.475769
0.474243
0.475464
0.475159
0.474854
0.475159
0.474243
0.475159
0.473938
0.473328
0.473633
0.473022
0.472717
0.472717
0.472412
0.472107
0.472412
0.471497
0.471191
0.471497
0.470581
0.470276
0.469971
0.470581
0.469055
0.469666
0.469055
0.469666
0.469055
0.46936
0.469055
0.468445
0.469055
0.468445
0.46814
0.469055
0.467529
0.467834
0.466919
0.466919
0.466919
0.467224
0.466309
0.466309
0.466614
0.466309
0.466309
0.465698
0.465698
0.465698
0.465393
0.465088
0.464172
0.464172
0.464172
0.464172
0.463562
0.463562
0.462952
0.462341
0.462341
0.462036
0.462646
0.461731
0.462646
0.461121
0.461426
0.461426
0.461121
0.461426
0.461426
0.461121
0.461121
0.461121
0.460815
0.460815
0.460815
0.46051
0.460815
0.4599
0.4599
0.46051
0.4599
0.4599
0.4599
0.45929
0.45929
0.45929
0.4599
0.458984
0.4599
0.4599
0.459595
0.45929
0.45929
0.45929
0.458984
0.458984
0.45929
0.458984
0.458984
0.458069
0.458679
0.458374
0.458069
0.458984
0.458069
0.458069
0.458984
0.458069
0.457764
0.457458
0.457153
0.457153
0.457458
0.456543
0.457153
0.456238
0.456238
0.455933
0.456238
0.455627
0.455627
0.455933
0.455322
0.455017
0.455017
0.454712
0.454712
0.454712
0.455017
0.455017
0.454102
0.454712
0.454407
0.455322
0.454102
0.454712
0.455017
0.454102
0.454102
0.453796
0.454102
0.453796
0.454407
0.453186
0.453796
0.453491
0.453491
0.452881
0.453186
0.451965
0.453186
0.452576
0.452576
0.452576
0.452576
0.452271
0.452576
0.45166
0.452576
0.45166
0.45166
0.45166
0.451355
0.451965
0.45166
0.451965
0.451965
0.451965
0.45166
0.451355
0.451965
0.45166
0.45166
0.45166
0.451355
0.45166
0.45105
0.450439
0.450439
0.450439
0.450439
0.450439
0.449524
0.450134
0.449829
0.449829
0.449524
0.448914
0.449524
0.448608
0.448303
0.448303
0.447998
0.448608
0.448303
0.447388
0.447388
0.447693
0.447083
0.446777
0.446777
0.447083
0.446777
0.447388
0.446777
0.446167
0.446472
0.447388
0.446777
0.447388
0.446472
0.446472
0.446777
0.446777
0.447083
0.446167
0.446167
0.447388
0.446777
0.446777
0.447083
0.446777
0.446167
0.446777
0.446472
0.446777
0.446167
0.447388
0.446777
0.446777
0.447388
0.447083
0.446472
0.447083
0.447693
0.447388
0.446777
0.447083
0.447083
0.447083
0.446777
0.446777
0.447388
0.447083
0.447388
0.447083
0.447388
0.446777
0.447083
0.447693
0.446777
0.446777
0.447083
0.446777
0.447388
0.446777
0.447083
0.446472
0.447083
0.446472
0.446777
0.446777
0.446167
0.446777
0.446472
0.446167
0.446167
0.446777
0.446472
0.445862
0.446777
0.446472
0.447083
0.447388
0.447083
0.447083
0.447083
0.447388
0.446472
0.447083
0.447083
0.447388
0.447083
0.447998
0.448303
0.447998
0.448303
0.448608
0.448608
0.447998
0.449219
0.448303
0.449219
0.449524
0.449219
0.448608
0.449219
0.449829
0.448914
0.449829
0.449829
0.450439
0.449524
0.450134
0.450134
0.450439
0.45105
0.450439
0.450134
0.450134
0.45105
0.45105
0.450745
0.450439
0.450439
0.450134
0.450439
0.450439
0.449524
0.450134
0.450134
0.450439
0.449524
0.449524
0.450134
0.449829
0.449524
0.450745
0.449829
0.449829
0.450134
0.450134
0.450134
0.449829
0.450134
0.450134
0.449829
0.450134
0.449829
0.450134
0.450134
0.450439
0.449829
0.449829
0.450134
0.450134
0.450745
0.450745
0.450439
0.450745
0.450745
0.45105
0.451355
0.45105
0.451355
0.451355
0.451965
0.452271
0.45166
0.452576
0.451965
0.451965
0.452576
0.452271
0.452576
0.452881
0.452576
0.452576
0.452576
0.453186
0.452881
0.452881
0.453186
0.453186
0.453491
0.453186
0.452881
0.452576
0.453186
0.452576
0.452271
0.453186
0.452881
0.453491
0.453796
0.453796
0.453491
0.453796
0.453491
0.453796
0.454407
0.454712
0.454712
0.454712
0.455627
0.455322
0.455322
0.455627
0.455322
0.456238
0.456543
0.455933
0.456238
0.456543
0.457153
0.457153
0.456848
0.457764
0.456848
0.457153
0.458069
0.458069
0.458069
0.457764
0.458374
0.457458
0.458069
0.458374
0.458984
0.458374
0.458374
0.45929
0.458374
0.458984
0.45929
0.459595
0.459595
0.46051
0.459595
0.4599
0.46051
0.46051
0.46051
0.461426
0.461731
0.462036
0.462341
0.462952
0.463867
0.463562
0.464478
0.464783
0.465698
0.466614
0.467224
0.46814
0.469055
0.469971
0.470581
0.471802
0.473328
0.473938
0.475769
0.476379
0.47821
0.479431
0.480042
0.482483
0.483093
0.484619
0.487061
0.489197
0.490417
0.492859
0.494385
0.496826
0.498657
0.501099
0.503235
0.504761
0.506897
0.509644
0.512085
0.514221
0.516052
0.518494
0.52124
0.523987
0.526428
0.52887
0.531616
0.534058
0.537109
0.539551
0.541992
0.545654
0.548401
0.550537
0.553589
0.556335
0.559082
0.562134
0.56488
0.567932
0.569458
0.571899
0.574646
0.577698
0.580444
0.582886
0.585632
0.587769
0.589905
0.592957
0.594788
0.598145
0.600281
0.602722
0.605774
0.608215
0.610352
0.613098
0.61554
0.617676
0.620117
0.622559
0.624695
0.626831
0.628967
0.631104
0.632935
0.635376
0.637207
0.638733
0.641479
0.6427
0.644836
0.647278
0.649109
0.65094
0.652466
0.653076
0.655518
0.656433
0.657959
0.6604
0.660706
0.662231
0.663757
0.664368
0.665588
0.667114
0.66864
0.668945
0.669861
0.671692
0.672302
0.673828
0.673828
0.674438
0.67627
0.675964
0.67749
0.67688
0.678101
0.678711
0.679016
0.679016
0.679321
0.679932
0.679321
0.680542
0.680542
0.680847
0.680237
0.680847
0.680542
0.680847
0.680847
0.680542
0.680542
0.680847
0.679932
0.680237
0.680237
0.679626
0.679626
0.679016
0.679321
0.678711
0.678101
0.678101
0.67688
0.677795
0.678101
0.677185
0.67688
0.676575
0.676575
0.675659
0.675659
0.675049
0.674133
0.674133
0.673828
0.673218
0.672607
0.672913
0.671997
0.671997
0.671692
0.670776
0.670471
0.670166
0.669556
0.66925
0.66925
0.66864
0.667725
0.667725
0.667725
0.667419
0.667419
0.666504
0.666199
0.665588
0.665588
0.664368
0.664062
0.664062
0.663147
0.664368
0.663147
0.662842
0.662537
0.662231
0.662842
0.661926
0.661316
0.661621
0.660706
0.661011
0.660706
0.65979
0.659485
0.659485
0.659485
0.658875
0.658569
0.657959
0.658264
0.657654
0.657959
0.657043
0.657654
0.657349
0.657043
0.657349
0.657043
0.657043
0.657043
0.657654
0.656738
0.657349
0.656738
0.657043
0.658264
0.657349
0.657349
0.657349
0.657654
0.657349
0.657654
0.657043
0.657043
0.657654
0.658264
0.657349
0.658264
0.658875
0.658569
0.658875
0.658875
0.65918
0.658875
0.658875
0.658875
0.65918
0.65918
0.65918
0.658875
0.658875
0.658875
0.65918
0.65918
0.660095
0.659485
0.65979
0.659485
0.65979
0.65918
0.65918
0.65918
0.659485
0.659485
0.65918
0.65918
0.659485
0.658569
0.65918
0.65918
0.65918
0.657959
0.658264
0.658569
0.657349
0.657654
0.657654
0.656433
0.657043
0.656738
0.656128
0.656128
0.655212
0.655212
0.655212
0.654602
0.654297
0.653076
0.652771
0.652161
0.652161
0.65155
0.651245
0.650635
0.65033
0.650635
0.649109
0.649414
0.648804
0.648499
0.647888
0.648193
0.647583
0.646667
0.646667
0.646362
0.646667
0.645447
0.645752
0.645752
0.644836
0.643616
0.643616
0.643921
0.644836
0.643005
0.643311
0.6427
0.643005
0.6427
0.642395
0.641785
0.640564
0.640564
0.640869
0.640564
0.639648
0.639343
0.639343
0.638733
0.638428
0.638428
0.638428
0.637817
0.638428
0.638733
0.637512
0.637817
0.637207
0.637207
0.637512
0.636292
0.635986
0.635071
0.635681
0.635681
0.634766
0.634766
0.634155
0.634155
0.633545
0.632629
0.632629
0.632935
0.632324
0.631714
0.630798
0.631104
0.630798
0.630798
0.630188
0.630188
0.629272
0.629578
0.628662
0.628052
0.627747
0.628052
0.628052
0.628052
0.627441
0.626831
0.627136
0.626221
0.625916
0.62561
0.62561
0.62561
0.624695
0.625305
0.625
0.625
0.624084
0.623779
0.623474
0.622864
0.623169
0.622864
0.621338
0.621338
0.621338
0.620728
0.621338
0.620728
0.619812
0.619507
0.619507
0.619812
0.618591
0.618896
0.618896
0.617371
0.616455
0.61676
0.615845
0.615845
0.61554
0.614929
0.614929
0.614014
0.612793
0.613098
0.612488
0.611877
0.611572
0.611267
0.611267
0.610657
0.610046
0.609436
0.610046
0.609131
0.608215
0.60791
0.6073
0.6073
0.606079
0.605774
0.605469
0.605469
0.604248
0.603333
0.603333
0.602722
0.602417
0.601501
0.601807
0.599976
0.599976
0.59845
0.598145
0.597534
0.597534
0.596924
0.596008
0.595093
0.594482
0.593872
0.593872
0.593262
0.592346
0.591431
0.591125
0.589905
0.59021
0.588989
0.588684
0.588074
0.586548
0.586548
0.585022
0.585022
0.583496
0.583496
0.582275
0.58136
0.58136
0.580444
0.579224
0.579224
0.578308
0.577087
0.577087
0.576172
0.574951
0.574646
0.57373
0.572815
0.572205
0.571899
0.570984
0.570984
0.569763
0.569153
0.568542
0.567627
0.567322
0.566406
0.565491
0.564575
0.563965
0.56366
0.563049
0.562134
0.561218
0.560913
0.559387
0.559082
0.558167
0.557251
0.556641
0.556641
0.55481
0.555115
0.554504
0.553589
0.552368
0.552063
0.550842
0.551147
0.549622
0.548706
0.547791
0.547791
0.546875
0.545959
0.544739
0.544434
0.543213
0.542908
0.542297
0.541687
0.540771
0.539551
0.53894
0.538635
0.538635
0.537109
0.536194
0.535583
0.535889
0.534668
0.534058
0.533142
0.533142
0.532227
0.531921
0.531006
0.531006
0.529785
0.529785
0.52887
0.528259
0.527649
0.527344
0.526733
0.525818
0.525208
0.524292
0.523682
0.523987
0.523071
0.521851
0.521545
0.521545
0.520935
0.52063
0.52063
0.519104
0.518494
0.518188
0.518188
0.517883
0.516968
0.516357
0.516052
0.516357
0.514221
0.514221
0.513306
0.513306
0.512695
0.512695
0.51178
0.511169
0.511475
0.510559
0.509949
0.509644
0.509033
0.509338
0.508728
0.508118
0.507812
0.507202
0.506897
0.506897
0.505676
0.506287
0.505066
0.504456
0.503845
0.504456
0.50415
0.504456
0.50293
0.50293
0.50293
0.502625
0.502014
0.502014
0.501404
0.501709
0.500793
0.500793
0.500183
0.500183
0.499268
0.499878
0.499268
0.499268
0.498657
0.498352
0.498352
0.497742
0.497437
0.497131
0.496521
0.497131
0.497437
0.496216
0.496216
0.4953
0.494995
0.494385
0.493469
0.494385
0.493774
0.493164
0.492249
0.492554
0.492249
0.491943
0.491943
0.491028
0.491028
0.489807
0.491028
0.491028
0.490417
0.490723
0.489502
0.489807
0.489197
0.488892
0.488892
0.488586
0.489197
0.488281
0.488892
0.487061
0.487366
0.487366
0.487061
0.487671
0.487061
0.487061
0.486755
0.486145
0.48584
0.485535
0.486145
0.486145
0.48584
0.485535
0.485229
0.484314
0.484009
0.484314
0.483398
0.483704
0.483704
0.483093
0.483093
0.482788
0.481873
0.481873
0.482483
0.481567
0.481873
0.480957
0.480652
0.481262
0.480652
0.480347
0.480347
0.479126
0.479431
0.479126
0.47821
0.47821
0.478516
0.478516
0.4776
0.477295
0.477295
0.47699
0.47699
0.476685
0.476685
0.476685
0.476074
0.475769
0.475464
0.475159
0.474854
0.474243
0.474854
0.474243
0.473633
0.473938
0.474243
0.473938
0.473022
0.473938
0.473328
0.472717
0.472107
0.473022
0.471802
0.471802
0.471802
0.471802
0.471802
0.471497
0.471191
0.471497
0.470886
0.470581
0.470886
0.469666
0.470276
0.469971
0.469666
0.46936
0.469971
0.469666
0.46875
0.46814
0.467834
0.469055
0.467834
0.467224
0.467529
0.467224
0.467224
0.466919
0.466309
0.465698
0.466614
0.465698
0.465088
0.465393
0.465088
0.464783
0.464783
0.464478
0.463867
0.464172
0.462952
0.462952
0.463257
0.462341
0.46051
0.461426
0.461121
0.460815
0.460205
0.46051
0.4599
0.4599
0.458984
0.458374
0.458679
0.458679
0.458069
0.457764
0.457458
0.457458
0.457153
0.457153
0.456848
0.456543
0.457153
0.455322
0.456238
0.455627
0.455322
0.455322
0.454712
0.455017
0.455017
0.454407
0.454712
0.455017
0.455322
0.454407
0.455017
0.454407
0.455017
0.455017
0.455017
0.455322
0.455627
0.455322
0.455627
0.455933
0.455017
0.455322
0.455933
0.455627
0.455322
0.454712
0.454712
0.454407
0.455322
0.455627
0.455322
0.454712
0.454407
0.453796
0.454102
0.455017
0.453491
0.453491
0.453186
0.454102
0.452881
0.452576
0.452576
0.451965
0.452881
0.451965
0.452576
0.452576
0.45166
0.451965
0.451965
0.451965
0.452271
0.45166
0.45105
0.45166
0.451355
0.450745
0.45166
0.451355
0.45166
0.451355
0.451355
0.45166
0.450745
0.450745
0.45166
0.451355
